[Measurement conditions]
Sample identification,
Comment - 1,"finito"
Comment - 2,"Configuration=MRI TC-Basic Stage, Owner=User-1, Creation date=26-10-2009 9:18:44"
Comment - 3,"Goniometer=PW3050/60 (Theta/Theta); Minimum step size 2Theta:0.001; Minimum step size Omega:0.001"
Comment - 4,"Sample stage=MRI TC-Basic (PtRh heat strip)"
Comment - 5,"Diffractometer system=XPERT-PRO"
Comment - 6,"Measurement program=FlatStage, Owner=joana, Creation date=03-08-2011 15:43:53"
Anode material,Cu
K-Alpha1 wavelength,1.5405980
K-Alpha2 wavelength,1.5444260
Ratio K-Alpha2/K-Alpha1,0.500
Divergence slit,Fixed,0.76mm
Monochromator used,NO
Generator voltage, 45
Tube current, 40
File date and time,06/Dec/2012 21:18
Unit cell,
h k l, 0 0 0
Temperature [K],473
Scan axis,Gonio
Scan range,24.999999996,100.000175174
Scan step size,0.0167113
No. of points, 4488
Scan type,CONTINUOUS
Time per step,53.340
[Scan points]
Angle,Intensity
25.008355630,4553.0
25.025066899,4611.0
25.041778168,4503.0
25.058489437,4503.0
25.075200706,4491.0
25.091911975,4437.0
25.108623244,4650.0
25.125334513,4553.0
25.142045782,4536.0
25.158757051,4515.0
25.175468320,4388.0
25.192179589,4485.0
25.208890858,4502.0
25.225602127,4433.0
25.242313396,4572.0
25.259024665,4412.0
25.275735934,4406.0
25.292447203,4498.0
25.309158472,4524.0
25.325869741,4542.0
25.342581010,4534.0
25.359292279,4623.0
25.376003548,4389.0
25.392714817,4435.0
25.409426086,4532.0
25.426137354,4402.0
25.442848623,4486.0
25.459559892,4391.0
25.476271161,4525.0
25.492982430,4456.0
25.509693699,4403.0
25.526404968,4416.0
25.543116237,4564.0
25.559827506,4475.0
25.576538775,4560.0
25.593250044,4558.0
25.609961313,4515.0
25.626672582,4421.0
25.643383851,4476.0
25.660095120,4445.0
25.676806389,4493.0
25.693517658,4587.0
25.710228927,4658.0
25.726940196,4502.0
25.743651465,4587.0
25.760362734,4501.0
25.777074003,4373.0
25.793785272,4429.0
25.810496541,4441.0
25.827207810,4286.0
25.843919079,4370.0
25.860630348,4467.0
25.877341617,4743.0
25.894052886,4450.0
25.910764155,4500.0
25.927475424,4427.0
25.944186693,4556.0
25.960897962,4502.0
25.977609231,4552.0
25.994320500,4494.0
26.011031769,4491.0
26.027743038,4585.0
26.044454307,4511.0
26.061165576,4531.0
26.077876845,4561.0
26.094588114,4488.0
26.111299383,4406.0
26.128010652,4553.0
26.144721921,4254.0
26.161433190,4498.0
26.178144459,4541.0
26.194855728,4542.0
26.211566997,4392.0
26.228278265,4549.0
26.244989534,4433.0
26.261700803,4488.0
26.278412072,4558.0
26.295123341,4488.0
26.311834610,4527.0
26.328545879,4558.0
26.345257148,4478.0
26.361968417,4463.0
26.378679686,4473.0
26.395390955,4421.0
26.412102224,4404.0
26.428813493,4628.0
26.445524762,4542.0
26.462236031,4516.0
26.478947300,4512.0
26.495658569,4525.0
26.512369838,4601.0
26.529081107,4458.0
26.545792376,4520.0
26.562503645,4488.0
26.579214914,4483.0
26.595926183,4439.0
26.612637452,4403.0
26.629348721,4327.0
26.646059990,4484.0
26.662771259,4533.0
26.679482528,4407.0
26.696193797,4323.0
26.712905066,4400.0
26.729616335,4394.0
26.746327604,4460.0
26.763038873,4520.0
26.779750142,4399.0
26.796461411,4532.0
26.813172680,4497.0
26.829883949,4267.0
26.846595218,4528.0
26.863306487,4523.0
26.880017756,4439.0
26.896729025,4350.0
26.913440294,4458.0
26.930151563,4358.0
26.946862832,4455.0
26.963574101,4572.0
26.980285370,4465.0
26.996996639,4447.0
27.013707908,4561.0
27.030419176,4388.0
27.047130445,4524.0
27.063841714,4488.0
27.080552983,4377.0
27.097264252,4540.0
27.113975521,4500.0
27.130686790,4523.0
27.147398059,4330.0
27.164109328,4403.0
27.180820597,4455.0
27.197531866,4510.0
27.214243135,4367.0
27.230954404,4476.0
27.247665673,4500.0
27.264376942,4405.0
27.281088211,4310.0
27.297799480,4436.0
27.314510749,4417.0
27.331222018,4570.0
27.347933287,4471.0
27.364644556,4360.0
27.381355825,4441.0
27.398067094,4441.0
27.414778363,4412.0
27.431489632,4500.0
27.448200901,4435.0
27.464912170,4452.0
27.481623439,4471.0
27.498334708,4548.0
27.515045977,4432.0
27.531757246,4421.0
27.548468515,4508.0
27.565179784,4548.0
27.581891053,4317.0
27.598602322,4379.0
27.615313591,4405.0
27.632024860,4370.0
27.648736129,4377.0
27.665447398,4487.0
27.682158667,4471.0
27.698869936,4534.0
27.715581205,4335.0
27.732292474,4444.0
27.749003743,4472.0
27.765715012,4529.0
27.782426281,4437.0
27.799137550,4488.0
27.815848819,4379.0
27.832560087,4573.0
27.849271356,4527.0
27.865982625,4546.0
27.882693894,4420.0
27.899405163,4394.0
27.916116432,4494.0
27.932827701,4502.0
27.949538970,4430.0
27.966250239,4407.0
27.982961508,4454.0
27.999672777,4490.0
28.016384046,4517.0
28.033095315,4446.0
28.049806584,4477.0
28.066517853,4428.0
28.083229122,4429.0
28.099940391,4613.0
28.116651660,4489.0
28.133362929,4362.0
28.150074198,4514.0
28.166785467,4464.0
28.183496736,4450.0
28.200208005,4503.0
28.216919274,4449.0
28.233630543,4604.0
28.250341812,4455.0
28.267053081,4533.0
28.283764350,4521.0
28.300475619,4467.0
28.317186888,4522.0
28.333898157,4495.0
28.350609426,4425.0
28.367320695,4503.0
28.384031964,4531.0
28.400743233,4427.0
28.417454502,4583.0
28.434165771,4489.0
28.450877040,4333.0
28.467588309,4458.0
28.484299578,4517.0
28.501010847,4398.0
28.517722116,4390.0
28.534433385,4449.0
28.551144654,4396.0
28.567855923,4287.0
28.584567192,4392.0
28.601278461,4430.0
28.617989730,4465.0
28.634700999,4407.0
28.651412267,4416.0
28.668123536,4348.0
28.684834805,4296.0
28.701546074,4522.0
28.718257343,4414.0
28.734968612,4374.0
28.751679881,4448.0
28.768391150,4512.0
28.785102419,4475.0
28.801813688,4413.0
28.818524957,4396.0
28.835236226,4350.0
28.851947495,4470.0
28.868658764,4491.0
28.885370033,4481.0
28.902081302,4478.0
28.918792571,4437.0
28.935503840,4434.0
28.952215109,4395.0
28.968926378,4435.0
28.985637647,4522.0
29.002348916,4386.0
29.019060185,4430.0
29.035771454,4449.0
29.052482723,4292.0
29.069193992,4386.0
29.085905261,4321.0
29.102616530,4451.0
29.119327799,4296.0
29.136039068,4430.0
29.152750337,4466.0
29.169461606,4471.0
29.186172875,4446.0
29.202884144,4394.0
29.219595413,4423.0
29.236306682,4397.0
29.253017951,4496.0
29.269729220,4490.0
29.286440489,4362.0
29.303151758,4437.0
29.319863027,4407.0
29.336574296,4449.0
29.353285565,4249.0
29.369996834,4320.0
29.386708103,4551.0
29.403419372,4529.0
29.420130641,4449.0
29.436841910,4397.0
29.453553178,4460.0
29.470264447,4348.0
29.486975716,4258.0
29.503686985,4408.0
29.520398254,4574.0
29.537109523,4318.0
29.553820792,4380.0
29.570532061,4461.0
29.587243330,4292.0
29.603954599,4515.0
29.620665868,4456.0
29.637377137,4438.0
29.654088406,4417.0
29.670799675,4548.0
29.687510944,4333.0
29.704222213,4384.0
29.720933482,4323.0
29.737644751,4552.0
29.754356020,4296.0
29.771067289,4367.0
29.787778558,4506.0
29.804489827,4366.0
29.821201096,4459.0
29.837912365,4437.0
29.854623634,4450.0
29.871334903,4407.0
29.888046172,4482.0
29.904757441,4495.0
29.921468710,4346.0
29.938179979,4435.0
29.954891248,4506.0
29.971602517,4467.0
29.988313786,4406.0
30.005025055,4455.0
30.021736324,4171.0
30.038447593,4454.0
30.055158862,4474.0
30.071870131,4305.0
30.088581400,4417.0
30.105292669,4429.0
30.122003938,4454.0
30.138715207,4428.0
30.155426476,4412.0
30.172137745,4479.0
30.188849014,4395.0
30.205560283,4533.0
30.222271552,4403.0
30.238982821,4356.0
30.255694089,4433.0
30.272405358,4495.0
30.289116627,4296.0
30.305827896,4482.0
30.322539165,4495.0
30.339250434,4421.0
30.355961703,4425.0
30.372672972,4476.0
30.389384241,4439.0
30.406095510,4450.0
30.422806779,4328.0
30.439518048,4440.0
30.456229317,4332.0
30.472940586,4499.0
30.489651855,4339.0
30.506363124,4483.0
30.523074393,4364.0
30.539785662,4282.0
30.556496931,4369.0
30.573208200,4328.0
30.589919469,4416.0
30.606630738,4337.0
30.623342007,4519.0
30.640053276,4381.0
30.656764545,4345.0
30.673475814,4372.0
30.690187083,4288.0
30.706898352,4498.0
30.723609621,4360.0
30.740320890,4347.0
30.757032159,4458.0
30.773743428,4357.0
30.790454697,4519.0
30.807165966,4516.0
30.823877235,4460.0
30.840588504,4443.0
30.857299773,4476.0
30.874011042,4330.0
30.890722311,4408.0
30.907433580,4577.0
30.924144849,4457.0
30.940856118,4543.0
30.957567387,4527.0
30.974278656,4372.0
30.990989925,4362.0
31.007701194,4380.0
31.024412463,4348.0
31.041123732,4345.0
31.057835000,4468.0
31.074546269,4387.0
31.091257538,4436.0
31.107968807,4527.0
31.124680076,4355.0
31.141391345,4474.0
31.158102614,4469.0
31.174813883,4397.0
31.191525152,4449.0
31.208236421,4360.0
31.224947690,4398.0
31.241658959,4549.0
31.258370228,4441.0
31.275081497,4459.0
31.291792766,4445.0
31.308504035,4403.0
31.325215304,4342.0
31.341926573,4466.0
31.358637842,4387.0
31.375349111,4420.0
31.392060380,4468.0
31.408771649,4457.0
31.425482918,4354.0
31.442194187,4367.0
31.458905456,4474.0
31.475616725,4533.0
31.492327994,4367.0
31.509039263,4358.0
31.525750532,4431.0
31.542461801,4420.0
31.559173070,4381.0
31.575884339,4504.0
31.592595608,4368.0
31.609306877,4363.0
31.626018146,4377.0
31.642729415,4493.0
31.659440684,4412.0
31.676151953,4348.0
31.692863222,4303.0
31.709574491,4516.0
31.726285760,4359.0
31.742997029,4392.0
31.759708298,4509.0
31.776419567,4422.0
31.793130836,4337.0
31.809842105,4353.0
31.826553374,4438.0
31.843264643,4403.0
31.859975912,4364.0
31.876687180,4302.0
31.893398449,4381.0
31.910109718,4505.0
31.926820987,4465.0
31.943532256,4422.0
31.960243525,4406.0
31.976954794,4288.0
31.993666063,4468.0
32.010377332,4396.0
32.027088601,4413.0
32.043799870,4438.0
32.060511139,4343.0
32.077222408,4382.0
32.093933677,4312.0
32.110644946,4409.0
32.127356215,4340.0
32.144067484,4360.0
32.160778753,4437.0
32.177490022,4431.0
32.194201291,4246.0
32.210912560,4412.0
32.227623829,4319.0
32.244335098,4346.0
32.261046367,4444.0
32.277757636,4374.0
32.294468905,4462.0
32.311180174,4401.0
32.327891443,4291.0
32.344602712,4211.0
32.361313981,4396.0
32.378025250,4418.0
32.394736519,4113.0
32.411447788,4442.0
32.428159057,4372.0
32.444870326,4311.0
32.461581595,4425.0
32.478292864,4421.0
32.495004133,4460.0
32.511715402,4365.0
32.528426671,4421.0
32.545137940,4447.0
32.561849209,4396.0
32.578560478,4365.0
32.595271747,4356.0
32.611983016,4431.0
32.628694285,4358.0
32.645405554,4424.0
32.662116823,4364.0
32.678828091,4252.0
32.695539360,4346.0
32.712250629,4433.0
32.728961898,4345.0
32.745673167,4332.0
32.762384436,4351.0
32.779095705,4467.0
32.795806974,4432.0
32.812518243,4427.0
32.829229512,4331.0
32.845940781,4435.0
32.862652050,4440.0
32.879363319,4402.0
32.896074588,4376.0
32.912785857,4227.0
32.929497126,4438.0
32.946208395,4416.0
32.962919664,4451.0
32.979630933,4393.0
32.996342202,4341.0
33.013053471,4401.0
33.029764740,4410.0
33.046476009,4309.0
33.063187278,4364.0
33.079898547,4491.0
33.096609816,4338.0
33.113321085,4423.0
33.130032354,4426.0
33.146743623,4291.0
33.163454892,4321.0
33.180166161,4534.0
33.196877430,4319.0
33.213588699,4454.0
33.230299968,4367.0
33.247011237,4490.0
33.263722506,4378.0
33.280433775,4363.0
33.297145044,4372.0
33.313856313,4456.0
33.330567582,4240.0
33.347278851,4394.0
33.363990120,4261.0
33.380701389,4357.0
33.397412658,4385.0
33.414123927,4260.0
33.430835196,4500.0
33.447546465,4401.0
33.464257734,4437.0
33.480969002,4405.0
33.497680271,4530.0
33.514391540,4420.0
33.531102809,4288.0
33.547814078,4491.0
33.564525347,4405.0
33.581236616,4469.0
33.597947885,4363.0
33.614659154,4424.0
33.631370423,4404.0
33.648081692,4256.0
33.664792961,4369.0
33.681504230,4204.0
33.698215499,4474.0
33.714926768,4381.0
33.731638037,4410.0
33.748349306,4358.0
33.765060575,4395.0
33.781771844,4359.0
33.798483113,4324.0
33.815194382,4408.0
33.831905651,4355.0
33.848616920,4403.0
33.865328189,4366.0
33.882039458,4466.0
33.898750727,4366.0
33.915461996,4341.0
33.932173265,4342.0
33.948884534,4405.0
33.965595803,4437.0
33.982307072,4401.0
33.999018341,4300.0
34.015729610,4417.0
34.032440879,4323.0
34.049152148,4425.0
34.065863417,4546.0
34.082574686,4399.0
34.099285955,4458.0
34.115997224,4392.0
34.132708493,4454.0
34.149419762,4528.0
34.166131031,4434.0
34.182842300,4413.0
34.199553569,4411.0
34.216264838,4344.0
34.232976107,4414.0
34.249687376,4396.0
34.266398645,4350.0
34.283109913,4389.0
34.299821182,4407.0
34.316532451,4459.0
34.333243720,4392.0
34.349954989,4317.0
34.366666258,4493.0
34.383377527,4328.0
34.400088796,4484.0
34.416800065,4413.0
34.433511334,4361.0
34.450222603,4385.0
34.466933872,4260.0
34.483645141,4326.0
34.500356410,4486.0
34.517067679,4354.0
34.533778948,4425.0
34.550490217,4345.0
34.567201486,4504.0
34.583912755,4267.0
34.600624024,4385.0
34.617335293,4394.0
34.634046562,4419.0
34.650757831,4335.0
34.667469100,4456.0
34.684180369,4480.0
34.700891638,4334.0
34.717602907,4444.0
34.734314176,4272.0
34.751025445,4381.0
34.767736714,4294.0
34.784447983,4428.0
34.801159252,4490.0
34.817870521,4364.0
34.834581790,4394.0
34.851293059,4428.0
34.868004328,4517.0
34.884715597,4374.0
34.901426866,4545.0
34.918138135,4451.0
34.934849404,4473.0
34.951560673,4421.0
34.968271942,4432.0
34.984983211,4557.0
35.001694480,4367.0
35.018405749,4483.0
35.035117018,4369.0
35.051828287,4396.0
35.068539556,4404.0
35.085250825,4436.0
35.101962093,4467.0
35.118673362,4448.0
35.135384631,4350.0
35.152095900,4395.0
35.168807169,4291.0
35.185518438,4549.0
35.202229707,4439.0
35.218940976,4361.0
35.235652245,4339.0
35.252363514,4420.0
35.269074783,4407.0
35.285786052,4431.0
35.302497321,4337.0
35.319208590,4398.0
35.335919859,4401.0
35.352631128,4373.0
35.369342397,4385.0
35.386053666,4306.0
35.402764935,4429.0
35.419476204,4307.0
35.436187473,4381.0
35.452898742,4375.0
35.469610011,4452.0
35.486321280,4453.0
35.503032549,4459.0
35.519743818,4438.0
35.536455087,4429.0
35.553166356,4393.0
35.569877625,4521.0
35.586588894,4445.0
35.603300163,4488.0
35.620011432,4418.0
35.636722701,4393.0
35.653433970,4422.0
35.670145239,4518.0
35.686856508,4374.0
35.703567777,4440.0
35.720279046,4374.0
35.736990315,4292.0
35.753701584,4514.0
35.770412853,4409.0
35.787124122,4404.0
35.803835391,4407.0
35.820546660,4406.0
35.837257929,4432.0
35.853969198,4476.0
35.870680467,4364.0
35.887391736,4518.0
35.904103004,4413.0
35.920814273,4347.0
35.937525542,4558.0
35.954236811,4451.0
35.970948080,4461.0
35.987659349,4330.0
36.004370618,4297.0
36.021081887,4460.0
36.037793156,4406.0
36.054504425,4464.0
36.071215694,4343.0
36.087926963,4276.0
36.104638232,4424.0
36.121349501,4349.0
36.138060770,4388.0
36.154772039,4366.0
36.171483308,4416.0
36.188194577,4412.0
36.204905846,4444.0
36.221617115,4438.0
36.238328384,4292.0
36.255039653,4409.0
36.271750922,4397.0
36.288462191,4415.0
36.305173460,4464.0
36.321884729,4532.0
36.338595998,4495.0
36.355307267,4441.0
36.372018536,4420.0
36.388729805,4368.0
36.405441074,4377.0
36.422152343,4446.0
36.438863612,4419.0
36.455574881,4389.0
36.472286150,4411.0
36.488997419,4384.0
36.505708688,4488.0
36.522419957,4439.0
36.539131226,4419.0
36.555842495,4381.0
36.572553764,4341.0
36.589265033,4437.0
36.605976302,4479.0
36.622687571,4456.0
36.639398840,4424.0
36.656110109,4469.0
36.672821378,4532.0
36.689532647,4456.0
36.706243915,4353.0
36.722955184,4428.0
36.739666453,4405.0
36.756377722,4344.0
36.773088991,4439.0
36.789800260,4409.0
36.806511529,4245.0
36.823222798,4346.0
36.839934067,4352.0
36.856645336,4443.0
36.873356605,4406.0
36.890067874,4431.0
36.906779143,4512.0
36.923490412,4365.0
36.940201681,4297.0
36.956912950,4463.0
36.973624219,4530.0
36.990335488,4361.0
37.007046757,4440.0
37.023758026,4412.0
37.040469295,4428.0
37.057180564,4573.0
37.073891833,4497.0
37.090603102,4483.0
37.107314371,4471.0
37.124025640,4421.0
37.140736909,4516.0
37.157448178,4399.0
37.174159447,4450.0
37.190870716,4427.0
37.207581985,4388.0
37.224293254,4462.0
37.241004523,4371.0
37.257715792,4500.0
37.274427061,4531.0
37.291138330,4443.0
37.307849599,4427.0
37.324560868,4433.0
37.341272137,4451.0
37.357983406,4545.0
37.374694675,4401.0
37.391405944,4397.0
37.408117213,4449.0
37.424828482,4551.0
37.441539751,4526.0
37.458251020,4574.0
37.474962289,4420.0
37.491673558,4475.0
37.508384826,4500.0
37.525096095,4387.0
37.541807364,4474.0
37.558518633,4540.0
37.575229902,4446.0
37.591941171,4409.0
37.608652440,4345.0
37.625363709,4393.0
37.642074978,4520.0
37.658786247,4520.0
37.675497516,4360.0
37.692208785,4409.0
37.708920054,4437.0
37.725631323,4526.0
37.742342592,4477.0
37.759053861,4566.0
37.775765130,4451.0
37.792476399,4439.0
37.809187668,4579.0
37.825898937,4508.0
37.842610206,4577.0
37.859321475,4462.0
37.876032744,4447.0
37.892744013,4472.0
37.909455282,4579.0
37.926166551,4509.0
37.942877820,4477.0
37.959589089,4471.0
37.976300358,4505.0
37.993011627,4457.0
38.009722896,4606.0
38.026434165,4612.0
38.043145434,4563.0
38.059856703,4494.0
38.076567972,4506.0
38.093279241,4458.0
38.109990510,4492.0
38.126701779,4580.0
38.143413048,4554.0
38.160124317,4447.0
38.176835586,4491.0
38.193546855,4631.0
38.210258124,4542.0
38.226969393,4496.0
38.243680662,4512.0
38.260391931,4434.0
38.277103200,4575.0
38.293814469,4569.0
38.310525738,4469.0
38.327237006,4411.0
38.343948275,4428.0
38.360659544,4630.0
38.377370813,4491.0
38.394082082,4561.0
38.410793351,4688.0
38.427504620,4533.0
38.444215889,4555.0
38.460927158,4536.0
38.477638427,4617.0
38.494349696,4508.0
38.511060965,4565.0
38.527772234,4566.0
38.544483503,4525.0
38.561194772,4570.0
38.577906041,4641.0
38.594617310,4599.0
38.611328579,4532.0
38.628039848,4703.0
38.644751117,4717.0
38.661462386,4703.0
38.678173655,4897.0
38.694884924,4836.0
38.711596193,5297.0
38.728307462,5302.0
38.745018731,5324.0
38.761730000,5187.0
38.778441269,5175.0
38.795152538,4899.0
38.811863807,4876.0
38.828575076,4782.0
38.845286345,4620.0
38.861997614,4547.0
38.878708883,4659.0
38.895420152,4530.0
38.912131421,4610.0
38.928842690,4585.0
38.945553959,4655.0
38.962265228,4740.0
38.978976497,4676.0
38.995687766,4646.0
39.012399035,4404.0
39.029110304,4496.0
39.045821573,4608.0
39.062532842,4513.0
39.079244111,4562.0
39.095955380,4609.0
39.112666649,4601.0
39.129377917,4593.0
39.146089186,4394.0
39.162800455,4581.0
39.179511724,4559.0
39.196222993,4520.0
39.212934262,4443.0
39.229645531,4509.0
39.246356800,4621.0
39.263068069,4572.0
39.279779338,4486.0
39.296490607,4697.0
39.313201876,4553.0
39.329913145,4527.0
39.346624414,4530.0
39.363335683,4625.0
39.380046952,4655.0
39.396758221,4533.0
39.413469490,4581.0
39.430180759,4584.0
39.446892028,4730.0
39.463603297,4697.0
39.480314566,4668.0
39.497025835,4593.0
39.513737104,4663.0
39.530448373,4713.0
39.547159642,4470.0
39.563870911,4548.0
39.580582180,4542.0
39.597293449,4556.0
39.614004718,4549.0
39.630715987,4605.0
39.647427256,4636.0
39.664138525,4307.0
39.680849794,4590.0
39.697561063,4528.0
39.714272332,4416.0
39.730983601,4656.0
39.747694870,4569.0
39.764406139,4509.0
39.781117408,4441.0
39.797828677,4573.0
39.814539946,4538.0
39.831251215,4633.0
39.847962484,4616.0
39.864673753,4572.0
39.881385022,4512.0
39.898096291,4591.0
39.914807560,4440.0
39.931518828,4572.0
39.948230097,4555.0
39.964941366,4511.0
39.981652635,4578.0
39.998363904,4422.0
40.015075173,4519.0
40.031786442,4650.0
40.048497711,4579.0
40.065208980,4520.0
40.081920249,4522.0
40.098631518,4523.0
40.115342787,4631.0
40.132054056,4613.0
40.148765325,4465.0
40.165476594,4795.0
40.182187863,4528.0
40.198899132,4448.0
40.215610401,4482.0
40.232321670,4481.0
40.249032939,4601.0
40.265744208,4548.0
40.282455477,4586.0
40.299166746,4625.0
40.315878015,4560.0
40.332589284,4680.0
40.349300553,4509.0
40.366011822,4594.0
40.382723091,4604.0
40.399434360,4658.0
40.416145629,4519.0
40.432856898,4504.0
40.449568167,4449.0
40.466279436,4506.0
40.482990705,4550.0
40.499701974,4605.0
40.516413243,4501.0
40.533124512,4504.0
40.549835781,4470.0
40.566547050,4570.0
40.583258319,4692.0
40.599969588,4474.0
40.616680857,4555.0
40.633392126,4448.0
40.650103395,4556.0
40.666814664,4600.0
40.683525933,4516.0
40.700237202,4509.0
40.716948471,4550.0
40.733659739,4602.0
40.750371008,4615.0
40.767082277,4737.0
40.783793546,4655.0
40.800504815,4498.0
40.817216084,4577.0
40.833927353,4611.0
40.850638622,4572.0
40.867349891,4504.0
40.884061160,4664.0
40.900772429,4441.0
40.917483698,4561.0
40.934194967,4615.0
40.950906236,4680.0
40.967617505,4604.0
40.984328774,4478.0
41.001040043,4578.0
41.017751312,4590.0
41.034462581,4473.0
41.051173850,4564.0
41.067885119,4560.0
41.084596388,4595.0
41.101307657,4568.0
41.118018926,4525.0
41.134730195,4573.0
41.151441464,4655.0
41.168152733,4559.0
41.184864002,4518.0
41.201575271,4702.0
41.218286540,4617.0
41.234997809,4674.0
41.251709078,4659.0
41.268420347,4592.0
41.285131616,4693.0
41.301842885,4723.0
41.318554154,4722.0
41.335265423,4615.0
41.351976692,4738.0
41.368687961,4716.0
41.385399230,4568.0
41.402110499,4706.0
41.418821768,4775.0
41.435533037,4651.0
41.452244306,4746.0
41.468955575,4784.0
41.485666844,4832.0
41.502378113,4970.0
41.519089382,5057.0
41.535800651,5199.0
41.552511919,5261.0
41.569223188,5310.0
41.585934457,5492.0
41.602645726,5674.0
41.619356995,5464.0
41.636068264,5539.0
41.652779533,5491.0
41.669490802,5594.0
41.686202071,5553.0
41.702913340,5536.0
41.719624609,5412.0
41.736335878,5514.0
41.753047147,5364.0
41.769758416,5542.0
41.786469685,5459.0
41.803180954,5537.0
41.819892223,5613.0
41.836603492,5383.0
41.853314761,5686.0
41.870026030,5568.0
41.886737299,5534.0
41.903448568,5651.0
41.920159837,5503.0
41.936871106,5781.0
41.953582375,5516.0
41.970293644,5714.0
41.987004913,5606.0
42.003716182,5536.0
42.020427451,5641.0
42.037138720,5655.0
42.053849989,5725.0
42.070561258,5712.0
42.087272527,5614.0
42.103983796,5642.0
42.120695065,5924.0
42.137406334,5879.0
42.154117603,5843.0
42.170828872,5954.0
42.187540141,5946.0
42.204251410,5823.0
42.220962679,5914.0
42.237673948,5765.0
42.254385217,5763.0
42.271096486,5714.0
42.287807755,5825.0
42.304519024,5841.0
42.321230293,5745.0
42.337941562,5863.0
42.354652830,5772.0
42.371364099,5982.0
42.388075368,5883.0
42.404786637,5902.0
42.421497906,5819.0
42.438209175,5960.0
42.454920444,5918.0
42.471631713,5920.0
42.488342982,6104.0
42.505054251,6159.0
42.521765520,6038.0
42.538476789,6050.0
42.555188058,6285.0
42.571899327,6292.0
42.588610596,6390.0
42.605321865,6432.0
42.622033134,6475.0
42.638744403,6691.0
42.655455672,6842.0
42.672166941,7206.0
42.688878210,7346.0
42.705589479,8002.0
42.722300748,8306.0
42.739012017,8757.0
42.755723286,9550.0
42.772434555,10224.0
42.789145824,10844.0
42.805857093,11782.0
42.822568362,12470.0
42.839279631,13745.0
42.855990900,14963.0
42.872702169,16311.0
42.889413438,17857.0
42.906124707,19905.0
42.922835976,22931.0
42.939547245,27705.0
42.956258514,34695.0
42.972969783,45700.0
42.989681052,64520.0
43.006392321,95187.0
43.023103590,141027.0
43.039814859,202588.0
43.056526128,264123.0
43.073237397,305062.0
43.089948666,313973.0
43.106659935,293319.0
43.123371204,256729.0
43.140082473,220396.0
43.156793741,197597.0
43.173505010,185621.0
43.190216279,176826.0
43.206927548,163875.0
43.223638817,141623.0
43.240350086,111032.0
43.257061355,79543.0
43.273772624,53934.0
43.290483893,34209.0
43.307195162,23338.0
43.323906431,18195.0
43.340617700,15224.0
43.357328969,13433.0
43.374040238,11937.0
43.390751507,10968.0
43.407462776,10050.0
43.424174045,9619.0
43.440885314,8755.0
43.457596583,8316.0
43.474307852,7839.0
43.491019121,7501.0
43.507730390,7310.0
43.524441659,7115.0
43.541152928,7042.0
43.557864197,6844.0
43.574575466,6696.0
43.591286735,6455.0
43.607998004,6598.0
43.624709273,6512.0
43.641420542,6434.0
43.658131811,6300.0
43.674843080,6398.0
43.691554349,6091.0
43.708265618,6131.0
43.724976887,5999.0
43.741688156,6088.0
43.758399425,6005.0
43.775110694,5866.0
43.791821963,5929.0
43.808533232,5895.0
43.825244501,5895.0
43.841955770,5856.0
43.858667039,5932.0
43.875378308,5836.0
43.892089577,5763.0
43.908800846,5690.0
43.925512115,5769.0
43.942223384,5733.0
43.958934652,5709.0
43.975645921,5719.0
43.992357190,5663.0
44.009068459,5491.0
44.025779728,5652.0
44.042490997,5672.0
44.059202266,5458.0
44.075913535,5399.0
44.092624804,5581.0
44.109336073,5562.0
44.126047342,5520.0
44.142758611,5681.0
44.159469880,5564.0
44.176181149,5494.0
44.192892418,5352.0
44.209603687,5455.0
44.226314956,5629.0
44.243026225,5321.0
44.259737494,5338.0
44.276448763,5344.0
44.293160032,5439.0
44.309871301,5190.0
44.326582570,5344.0
44.343293839,5446.0
44.360005108,5401.0
44.376716377,5148.0
44.393427646,5275.0
44.410138915,5405.0
44.426850184,5374.0
44.443561453,5465.0
44.460272722,5446.0
44.476983991,5260.0
44.493695260,5112.0
44.510406529,5265.0
44.527117798,5229.0
44.543829067,5382.0
44.560540336,5257.0
44.577251605,5261.0
44.593962874,5311.0
44.610674143,5223.0
44.627385412,5236.0
44.644096681,5376.0
44.660807950,5252.0
44.677519219,5295.0
44.694230488,5295.0
44.710941757,5273.0
44.727653026,5144.0
44.744364295,5325.0
44.761075564,5164.0
44.777786832,5244.0
44.794498101,5146.0
44.811209370,5306.0
44.827920639,5143.0
44.844631908,5150.0
44.861343177,5310.0
44.878054446,5185.0
44.894765715,5175.0
44.911476984,5355.0
44.928188253,5362.0
44.944899522,5345.0
44.961610791,5344.0
44.978322060,5387.0
44.995033329,5463.0
45.011744598,5486.0
45.028455867,5683.0
45.045167136,5621.0
45.061878405,5996.0
45.078589674,5540.0
45.095300943,5704.0
45.112012212,5430.0
45.128723481,5402.0
45.145434750,5286.0
45.162146019,5317.0
45.178857288,5266.0
45.195568557,5205.0
45.212279826,5203.0
45.228991095,5220.0
45.245702364,4980.0
45.262413633,5179.0
45.279124902,5075.0
45.295836171,5136.0
45.312547440,5135.0
45.329258709,5121.0
45.345969978,5006.0
45.362681247,5072.0
45.379392516,5134.0
45.396103785,5187.0
45.412815054,5080.0
45.429526323,5091.0
45.446237592,5016.0
45.462948861,5100.0
45.479660130,5171.0
45.496371399,5076.0
45.513082668,5014.0
45.529793937,4943.0
45.546505206,5073.0
45.563216475,5068.0
45.579927743,4996.0
45.596639012,4946.0
45.613350281,4993.0
45.630061550,4958.0
45.646772819,5152.0
45.663484088,5123.0
45.680195357,5013.0
45.696906626,4923.0
45.713617895,5006.0
45.730329164,5071.0
45.747040433,4998.0
45.763751702,4996.0
45.780462971,5228.0
45.797174240,5052.0
45.813885509,5085.0
45.830596778,5069.0
45.847308047,5052.0
45.864019316,5054.0
45.880730585,5095.0
45.897441854,4964.0
45.914153123,5024.0
45.930864392,4935.0
45.947575661,5026.0
45.964286930,4945.0
45.980998199,4982.0
45.997709468,5049.0
46.014420737,5068.0
46.031132006,4976.0
46.047843275,4961.0
46.064554544,5040.0
46.081265813,5036.0
46.097977082,4977.0
46.114688351,4932.0
46.131399620,4978.0
46.148110889,4964.0
46.164822158,4867.0
46.181533427,5039.0
46.198244696,5086.0
46.214955965,4966.0
46.231667234,4989.0
46.248378503,4993.0
46.265089772,4901.0
46.281801041,4917.0
46.298512310,5025.0
46.315223579,4983.0
46.331934848,4852.0
46.348646117,5065.0
46.365357386,5061.0
46.382068654,5070.0
46.398779923,5204.0
46.415491192,5303.0
46.432202461,5220.0
46.448913730,5274.0
46.465624999,5157.0
46.482336268,5058.0
46.499047537,5026.0
46.515758806,5187.0
46.532470075,5153.0
46.549181344,5273.0
46.565892613,5267.0
46.582603882,5218.0
46.599315151,5123.0
46.616026420,5047.0
46.632737689,5053.0
46.649448958,4944.0
46.666160227,5041.0
46.682871496,4913.0
46.699582765,4909.0
46.716294034,5167.0
46.733005303,4963.0
46.749716572,5010.0
46.766427841,5251.0
46.783139110,5368.0
46.799850379,5328.0
46.816561648,5567.0
46.833272917,5536.0
46.849984186,5363.0
46.866695455,5318.0
46.883406724,5338.0
46.900117993,5266.0
46.916829262,5258.0
46.933540531,5294.0
46.950251800,5288.0
46.966963069,5183.0
46.983674338,5196.0
47.000385607,5139.0
47.017096876,4915.0
47.033808145,5132.0
47.050519414,4951.0
47.067230683,4977.0
47.083941952,4849.0
47.100653221,4858.0
47.117364490,4870.0
47.134075759,4925.0
47.150787028,4957.0
47.167498297,4930.0
47.184209565,4928.0
47.200920834,4942.0
47.217632103,4858.0
47.234343372,4868.0
47.251054641,4938.0
47.267765910,4860.0
47.284477179,4905.0
47.301188448,4816.0
47.317899717,4832.0
47.334610986,4856.0
47.351322255,4785.0
47.368033524,4945.0
47.384744793,4788.0
47.401456062,4877.0
47.418167331,4800.0
47.434878600,4924.0
47.451589869,4841.0
47.468301138,4926.0
47.485012407,4896.0
47.501723676,4916.0
47.518434945,4668.0
47.535146214,4829.0
47.551857483,4767.0
47.568568752,4871.0
47.585280021,4844.0
47.601991290,4823.0
47.618702559,4855.0
47.635413828,4801.0
47.652125097,4857.0
47.668836366,4885.0
47.685547635,4942.0
47.702258904,4672.0
47.718970173,4860.0
47.735681442,4858.0
47.752392711,4973.0
47.769103980,4899.0
47.785815249,4954.0
47.802526518,4866.0
47.819237787,4851.0
47.835949056,4775.0
47.852660325,4937.0
47.869371594,4829.0
47.886082863,4920.0
47.902794132,4798.0
47.919505401,4908.0
47.936216670,4770.0
47.952927939,4922.0
47.969639208,4892.0
47.986350477,4850.0
48.003061745,4745.0
48.019773014,4764.0
48.036484283,4854.0
48.053195552,4847.0
48.069906821,4833.0
48.086618090,4836.0
48.103329359,4921.0
48.120040628,4850.0
48.136751897,4827.0
48.153463166,4757.0
48.170174435,4828.0
48.186885704,4878.0
48.203596973,4998.0
48.220308242,4887.0
48.237019511,4815.0
48.253730780,4800.0
48.270442049,4889.0
48.287153318,5097.0
48.303864587,5007.0
48.320575856,4968.0
48.337287125,5098.0
48.353998394,5368.0
48.370709663,5233.0
48.387420932,5220.0
48.404132201,5351.0
48.420843470,5366.0
48.437554739,5349.0
48.454266008,5413.0
48.470977277,5434.0
48.487688546,5573.0
48.504399815,5438.0
48.521111084,5346.0
48.537822353,5457.0
48.554533622,5373.0
48.571244891,5363.0
48.587956160,5498.0
48.604667429,5511.0
48.621378698,5397.0
48.638089967,5444.0
48.654801236,5387.0
48.671512505,5515.0
48.688223774,5511.0
48.704935043,5326.0
48.721646312,5447.0
48.738357581,5489.0
48.755068850,5412.0
48.771780119,5381.0
48.788491388,5580.0
48.805202656,5529.0
48.821913925,5580.0
48.838625194,5468.0
48.855336463,5524.0
48.872047732,5338.0
48.888759001,5461.0
48.905470270,5450.0
48.922181539,5342.0
48.938892808,5618.0
48.955604077,5464.0
48.972315346,5507.0
48.989026615,5502.0
49.005737884,5572.0
49.022449153,5582.0
49.039160422,5656.0
49.055871691,5674.0
49.072582960,5669.0
49.089294229,5602.0
49.106005498,5733.0
49.122716767,5614.0
49.139428036,5474.0
49.156139305,5416.0
49.172850574,5354.0
49.189561843,5487.0
49.206273112,5592.0
49.222984381,5503.0
49.239695650,5507.0
49.256406919,5643.0
49.273118188,5407.0
49.289829457,5578.0
49.306540726,5638.0
49.323251995,5565.0
49.339963264,5466.0
49.356674533,5517.0
49.373385802,5546.0
49.390097071,5712.0
49.406808340,5683.0
49.423519609,5580.0
49.440230878,5818.0
49.456942147,5718.0
49.473653416,5727.0
49.490364685,5688.0
49.507075954,5734.0
49.523787223,5706.0
49.540498492,5887.0
49.557209761,5986.0
49.573921030,5829.0
49.590632299,5839.0
49.607343567,5845.0
49.624054836,5846.0
49.640766105,6136.0
49.657477374,5934.0
49.674188643,6010.0
49.690899912,6129.0
49.707611181,6124.0
49.724322450,6206.0
49.741033719,6451.0
49.757744988,6549.0
49.774456257,6640.0
49.791167526,7093.0
49.807878795,7456.0
49.824590064,7614.0
49.841301333,8121.0
49.858012602,8622.0
49.874723871,9338.0
49.891435140,10293.0
49.908146409,10960.0
49.924857678,11795.0
49.941568947,12649.0
49.958280216,13514.0
49.974991485,14265.0
49.991702754,15149.0
50.008414023,16556.0
50.025125292,18079.0
50.041836561,20766.0
50.058547830,24909.0
50.075259099,31718.0
50.091970368,42514.0
50.108681637,59745.0
50.125392906,87356.0
50.142104175,127041.0
50.158815444,174751.0
50.175526713,219935.0
50.192237982,245568.0
50.208949251,244381.0
50.225660520,219679.0
50.242371789,185203.0
50.259083058,152654.0
50.275794327,132654.0
50.292505596,128774.0
50.309216865,133667.0
50.325928134,136968.0
50.342639403,130494.0
50.359350672,113899.0
50.376061941,90623.0
50.392773210,67305.0
50.409484478,46626.0
50.426195747,31949.0
50.442907016,22663.0
50.459618285,17338.0
50.476329554,14855.0
50.493040823,12792.0
50.509752092,11565.0
50.526463361,10500.0
50.543174630,9721.0
50.559885899,9146.0
50.576597168,8333.0
50.593308437,7877.0
50.610019706,7725.0
50.626730975,7090.0
50.643442244,7030.0
50.660153513,6960.0
50.676864782,6709.0
50.693576051,6599.0
50.710287320,6359.0
50.726998589,6367.0
50.743709858,6123.0
50.760421127,6137.0
50.777132396,6120.0
50.793843665,5964.0
50.810554934,5970.0
50.827266203,5974.0
50.843977472,5992.0
50.860688741,5877.0
50.877400010,5915.0
50.894111279,5795.0
50.910822548,5608.0
50.927533817,5772.0
50.944245086,5369.0
50.960956355,5502.0
50.977667624,5560.0
50.994378893,5466.0
51.011090162,5688.0
51.027801431,5528.0
51.044512700,5529.0
51.061223969,5362.0
51.077935238,5418.0
51.094646507,5352.0
51.111357776,5420.0
51.128069045,5299.0
51.144780314,5295.0
51.161491583,5425.0
51.178202852,5334.0
51.194914121,5275.0
51.211625390,5360.0
51.228336658,5305.0
51.245047927,5465.0
51.261759196,5190.0
51.278470465,5339.0
51.295181734,5198.0
51.311893003,5008.0
51.328604272,5115.0
51.345315541,5374.0
51.362026810,5202.0
51.378738079,5181.0
51.395449348,5152.0
51.412160617,5162.0
51.428871886,5244.0
51.445583155,5154.0
51.462294424,5103.0
51.479005693,5193.0
51.495716962,5104.0
51.512428231,4976.0
51.529139500,5145.0
51.545850769,5071.0
51.562562038,5070.0
51.579273307,5044.0
51.595984576,5054.0
51.612695845,5055.0
51.629407114,5025.0
51.646118383,5044.0
51.662829652,5056.0
51.679540921,5101.0
51.696252190,5018.0
51.712963459,5174.0
51.729674728,5081.0
51.746385997,4942.0
51.763097266,5146.0
51.779808535,5104.0
51.796519804,5119.0
51.813231073,4942.0
51.829942342,5137.0
51.846653611,5010.0
51.863364880,4948.0
51.880076149,4956.0
51.896787418,4930.0
51.913498687,5043.0
51.930209956,5090.0
51.946921225,4881.0
51.963632494,4839.0
51.980343763,5090.0
51.997055032,4944.0
52.013766301,4997.0
52.030477569,4856.0
52.047188838,5004.0
52.063900107,5026.0
52.080611376,4947.0
52.097322645,5018.0
52.114033914,4798.0
52.130745183,4990.0
52.147456452,4912.0
52.164167721,4801.0
52.180878990,5080.0
52.197590259,4977.0
52.214301528,5011.0
52.231012797,4942.0
52.247724066,4957.0
52.264435335,4836.0
52.281146604,4975.0
52.297857873,4872.0
52.314569142,4835.0
52.331280411,5058.0
52.347991680,4859.0
52.364702949,4872.0
52.381414218,4949.0
52.398125487,4804.0
52.414836756,4914.0
52.431548025,4815.0
52.448259294,4863.0
52.464970563,4885.0
52.481681832,4845.0
52.498393101,4952.0
52.515104370,4818.0
52.531815639,4842.0
52.548526908,4822.0
52.565238177,5007.0
52.581949446,4943.0
52.598660715,4787.0
52.615371984,4888.0
52.632083253,4866.0
52.648794522,4770.0
52.665505791,4807.0
52.682217060,4940.0
52.698928329,4862.0
52.715639598,4744.0
52.732350867,4780.0
52.749062136,4846.0
52.765773405,4718.0
52.782484674,4818.0
52.799195943,4737.0
52.815907212,4856.0
52.832618480,4837.0
52.849329749,4767.0
52.866041018,4617.0
52.882752287,4712.0
52.899463556,4765.0
52.916174825,4723.0
52.932886094,4899.0
52.949597363,4728.0
52.966308632,4926.0
52.983019901,4835.0
52.999731170,4709.0
53.016442439,4824.0
53.033153708,4708.0
53.049864977,4721.0
53.066576246,4784.0
53.083287515,4772.0
53.099998784,4824.0
53.116710053,4727.0
53.133421322,4761.0
53.150132591,4746.0
53.166843860,4860.0
53.183555129,4612.0
53.200266398,4877.0
53.216977667,4819.0
53.233688936,4729.0
53.250400205,4847.0
53.267111474,4737.0
53.283822743,4704.0
53.300534012,4865.0
53.317245281,4678.0
53.333956550,4709.0
53.350667819,4685.0
53.367379088,4685.0
53.384090357,4781.0
53.400801626,4813.0
53.417512895,4816.0
53.434224164,4704.0
53.450935433,4613.0
53.467646702,4703.0
53.484357971,4859.0
53.501069240,4687.0
53.517780509,4786.0
53.534491778,4779.0
53.551203047,4792.0
53.567914316,4776.0
53.584625585,4684.0
53.601336854,4694.0
53.618048123,4838.0
53.634759391,4698.0
53.651470660,4674.0
53.668181929,4715.0
53.684893198,4667.0
53.701604467,4711.0
53.718315736,4720.0
53.735027005,4747.0
53.751738274,4871.0
53.768449543,4684.0
53.785160812,4713.0
53.801872081,4661.0
53.818583350,4731.0
53.835294619,4640.0
53.852005888,4724.0
53.868717157,4721.0
53.885428426,4808.0
53.902139695,4747.0
53.918850964,4620.0
53.935562233,4730.0
53.952273502,4588.0
53.968984771,4685.0
53.985696040,4628.0
54.002407309,4586.0
54.019118578,4797.0
54.035829847,4769.0
54.052541116,4620.0
54.069252385,4673.0
54.085963654,4714.0
54.102674923,4664.0
54.119386192,4713.0
54.136097461,4689.0
54.152808730,4744.0
54.169519999,4771.0
54.186231268,4849.0
54.202942537,4800.0
54.219653806,4713.0
54.236365075,4738.0
54.253076344,4758.0
54.269787613,4720.0
54.286498882,4837.0
54.303210151,4783.0
54.319921420,4783.0
54.336632689,4687.0
54.353343958,4628.0
54.370055227,4859.0
54.386766496,4896.0
54.403477765,4595.0
54.420189034,4654.0
54.436900303,4644.0
54.453611571,4703.0
54.470322840,4670.0
54.487034109,5002.0
54.503745378,4821.0
54.520456647,4848.0
54.537167916,4804.0
54.553879185,4947.0
54.570590454,5060.0
54.587301723,4957.0
54.604012992,5169.0
54.620724261,5172.0
54.637435530,5184.0
54.654146799,5090.0
54.670858068,5042.0
54.687569337,4915.0
54.704280606,5028.0
54.720991875,4829.0
54.737703144,4932.0
54.754414413,4889.0
54.771125682,4904.0
54.787836951,4839.0
54.804548220,4740.0
54.821259489,4698.0
54.837970758,4726.0
54.854682027,4772.0
54.871393296,4585.0
54.888104565,4708.0
54.904815834,4591.0
54.921527103,4735.0
54.938238372,4623.0
54.954949641,4844.0
54.971660910,4712.0
54.988372179,4683.0
55.005083448,4669.0
55.021794717,4617.0
55.038505986,4634.0
55.055217255,4714.0
55.071928524,4609.0
55.088639793,4751.0
55.105351062,4572.0
55.122062331,4615.0
55.138773600,4611.0
55.155484869,4717.0
55.172196138,4591.0
55.188907407,4560.0
55.205618676,4551.0
55.222329945,4578.0
55.239041214,4489.0
55.255752482,4569.0
55.272463751,4554.0
55.289175020,4541.0
55.305886289,4531.0
55.322597558,4727.0
55.339308827,4623.0
55.356020096,4642.0
55.372731365,4540.0
55.389442634,4515.0
55.406153903,4557.0
55.422865172,4453.0
55.439576441,4552.0
55.456287710,4608.0
55.472998979,4665.0
55.489710248,4732.0
55.506421517,4644.0
55.523132786,4600.0
55.539844055,4534.0
55.556555324,4590.0
55.573266593,4328.0
55.589977862,4573.0
55.606689131,4619.0
55.623400400,4509.0
55.640111669,4597.0
55.656822938,4649.0
55.673534207,4430.0
55.690245476,4548.0
55.706956745,4468.0
55.723668014,4433.0
55.740379283,4587.0
55.757090552,4508.0
55.773801821,4506.0
55.790513090,4562.0
55.807224359,4604.0
55.823935628,4627.0
55.840646897,4533.0
55.857358166,4634.0
55.874069435,4633.0
55.890780704,4569.0
55.907491973,4496.0
55.924203242,4557.0
55.940914511,4592.0
55.957625780,4500.0
55.974337049,4605.0
55.991048318,4562.0
56.007759587,4506.0
56.024470856,4554.0
56.041182125,4639.0
56.057893393,4608.0
56.074604662,4631.0
56.091315931,4438.0
56.108027200,4477.0
56.124738469,4543.0
56.141449738,4626.0
56.158161007,4506.0
56.174872276,4444.0
56.191583545,4521.0
56.208294814,4444.0
56.225006083,4652.0
56.241717352,4686.0
56.258428621,4706.0
56.275139890,4474.0
56.291851159,4401.0
56.308562428,4451.0
56.325273697,4552.0
56.341984966,4571.0
56.358696235,4603.0
56.375407504,4551.0
56.392118773,4557.0
56.408830042,4541.0
56.425541311,4448.0
56.442252580,4634.0
56.458963849,4406.0
56.475675118,4688.0
56.492386387,4557.0
56.509097656,4508.0
56.525808925,4483.0
56.542520194,4516.0
56.559231463,4472.0
56.575942732,4625.0
56.592654001,4559.0
56.609365270,4683.0
56.626076539,4444.0
56.642787808,4520.0
56.659499077,4523.0
56.676210346,4537.0
56.692921615,4487.0
56.709632884,4385.0
56.726344153,4358.0
56.743055422,4456.0
56.759766691,4600.0
56.776477960,4546.0
56.793189229,4409.0
56.809900498,4561.0
56.826611767,4569.0
56.843323036,4467.0
56.860034304,4421.0
56.876745573,4465.0
56.893456842,4422.0
56.910168111,4449.0
56.926879380,4457.0
56.943590649,4470.0
56.960301918,4592.0
56.977013187,4464.0
56.993724456,4485.0
57.010435725,4461.0
57.027146994,4479.0
57.043858263,4507.0
57.060569532,4614.0
57.077280801,4501.0
57.093992070,4623.0
57.110703339,4583.0
57.127414608,4450.0
57.144125877,4369.0
57.160837146,4514.0
57.177548415,4505.0
57.194259684,4543.0
57.210970953,4502.0
57.227682222,4562.0
57.244393491,4405.0
57.261104760,4532.0
57.277816029,4356.0
57.294527298,4484.0
57.311238567,4530.0
57.327949836,4505.0
57.344661105,4505.0
57.361372374,4394.0
57.378083643,4564.0
57.394794912,4519.0
57.411506181,4494.0
57.428217450,4548.0
57.444928719,4437.0
57.461639988,4499.0
57.478351257,4599.0
57.495062526,4467.0
57.511773795,4367.0
57.528485064,4536.0
57.545196333,4470.0
57.561907602,4481.0
57.578618871,4522.0
57.595330140,4501.0
57.612041409,4475.0
57.628752678,4387.0
57.645463947,4493.0
57.662175216,4423.0
57.678886484,4489.0
57.695597753,4463.0
57.712309022,4381.0
57.729020291,4479.0
57.745731560,4382.0
57.762442829,4441.0
57.779154098,4482.0
57.795865367,4474.0
57.812576636,4519.0
57.829287905,4484.0
57.845999174,4548.0
57.862710443,4517.0
57.879421712,4547.0
57.896132981,4484.0
57.912844250,4448.0
57.929555519,4410.0
57.946266788,4426.0
57.962978057,4408.0
57.979689326,4487.0
57.996400595,4562.0
58.013111864,4514.0
58.029823133,4560.0
58.046534402,4470.0
58.063245671,4642.0
58.079956940,4403.0
58.096668209,4407.0
58.113379478,4510.0
58.130090747,4519.0
58.146802016,4382.0
58.163513285,4404.0
58.180224554,4542.0
58.196935823,4355.0
58.213647092,4658.0
58.230358361,4551.0
58.247069630,4580.0
58.263780899,4500.0
58.280492168,4581.0
58.297203437,4349.0
58.313914706,4467.0
58.330625975,4518.0
58.347337244,4429.0
58.364048513,4453.0
58.380759782,4425.0
58.397471051,4497.0
58.414182320,4578.0
58.430893589,4400.0
58.447604858,4412.0
58.464316127,4396.0
58.481027395,4599.0
58.497738664,4597.0
58.514449933,4368.0
58.531161202,4496.0
58.547872471,4476.0
58.564583740,4446.0
58.581295009,4515.0
58.598006278,4409.0
58.614717547,4543.0
58.631428816,4329.0
58.648140085,4593.0
58.664851354,4512.0
58.681562623,4439.0
58.698273892,4366.0
58.714985161,4535.0
58.731696430,4533.0
58.748407699,4377.0
58.765118968,4590.0
58.781830237,4403.0
58.798541506,4481.0
58.815252775,4512.0
58.831964044,4495.0
58.848675313,4497.0
58.865386582,4488.0
58.882097851,4556.0
58.898809120,4577.0
58.915520389,4515.0
58.932231658,4484.0
58.948942927,4512.0
58.965654196,4553.0
58.982365465,4428.0
58.999076734,4331.0
59.015788003,4450.0
59.032499272,4436.0
59.049210541,4469.0
59.065921810,4526.0
59.082633079,4449.0
59.099344348,4373.0
59.116055617,4423.0
59.132766886,4352.0
59.149478155,4518.0
59.166189424,4444.0
59.182900693,4393.0
59.199611962,4448.0
59.216323231,4408.0
59.233034500,4424.0
59.249745769,4406.0
59.266457038,4451.0
59.283168306,4378.0
59.299879575,4446.0
59.316590844,4466.0
59.333302113,4294.0
59.350013382,4500.0
59.366724651,4342.0
59.383435920,4496.0
59.400147189,4477.0
59.416858458,4383.0
59.433569727,4403.0
59.450280996,4348.0
59.466992265,4251.0
59.483703534,4536.0
59.500414803,4396.0
59.517126072,4525.0
59.533837341,4498.0
59.550548610,4443.0
59.567259879,4362.0
59.583971148,4406.0
59.600682417,4392.0
59.617393686,4610.0
59.634104955,4411.0
59.650816224,4371.0
59.667527493,4470.0
59.684238762,4505.0
59.700950031,4351.0
59.717661300,4404.0
59.734372569,4468.0
59.751083838,4584.0
59.767795107,4333.0
59.784506376,4244.0
59.801217645,4291.0
59.817928914,4434.0
59.834640183,4347.0
59.851351452,4455.0
59.868062721,4454.0
59.884773990,4479.0
59.901485259,4334.0
59.918196528,4323.0
59.934907797,4474.0
59.951619066,4321.0
59.968330335,4528.0
59.985041604,4439.0
60.001752873,4375.0
60.018464142,4565.0
60.035175411,4467.0
60.051886680,4381.0
60.068597949,4511.0
60.085309217,4523.0
60.102020486,4437.0
60.118731755,4285.0
60.135443024,4479.0
60.152154293,4476.0
60.168865562,4437.0
60.185576831,4515.0
60.202288100,4444.0
60.218999369,4364.0
60.235710638,4425.0
60.252421907,4520.0
60.269133176,4344.0
60.285844445,4360.0
60.302555714,4471.0
60.319266983,4493.0
60.335978252,4367.0
60.352689521,4428.0
60.369400790,4533.0
60.386112059,4439.0
60.402823328,4626.0
60.419534597,4400.0
60.436245866,4402.0
60.452957135,4571.0
60.469668404,4441.0
60.486379673,4519.0
60.503090942,4289.0
60.519802211,4342.0
60.536513480,4504.0
60.553224749,4341.0
60.569936018,4446.0
60.586647287,4465.0
60.603358556,4496.0
60.620069825,4448.0
60.636781094,4370.0
60.653492363,4418.0
60.670203632,4530.0
60.686914901,4456.0
60.703626170,4291.0
60.720337439,4456.0
60.737048708,4461.0
60.753759977,4497.0
60.770471246,4481.0
60.787182515,4387.0
60.803893784,4386.0
60.820605053,4407.0
60.837316322,4475.0
60.854027591,4424.0
60.870738860,4411.0
60.887450129,4460.0
60.904161397,4235.0
60.920872666,4401.0
60.937583935,4460.0
60.954295204,4522.0
60.971006473,4367.0
60.987717742,4346.0
61.004429011,4459.0
61.021140280,4291.0
61.037851549,4466.0
61.054562818,4438.0
61.071274087,4438.0
61.087985356,4343.0
61.104696625,4456.0
61.121407894,4471.0
61.138119163,4482.0
61.154830432,4343.0
61.171541701,4372.0
61.188252970,4392.0
61.204964239,4543.0
61.221675508,4401.0
61.238386777,4404.0
61.255098046,4477.0
61.271809315,4450.0
61.288520584,4322.0
61.305231853,4406.0
61.321943122,4328.0
61.338654391,4545.0
61.355365660,4347.0
61.372076929,4401.0
61.388788198,4441.0
61.405499467,4340.0
61.422210736,4499.0
61.438922005,4447.0
61.455633274,4370.0
61.472344543,4338.0
61.489055812,4442.0
61.505767081,4397.0
61.522478350,4373.0
61.539189619,4410.0
61.555900888,4395.0
61.572612157,4418.0
61.589323426,4442.0
61.606034695,4458.0
61.622745964,4304.0
61.639457233,4356.0
61.656168502,4452.0
61.672879771,4382.0
61.689591040,4395.0
61.706302308,4302.0
61.723013577,4253.0
61.739724846,4428.0
61.756436115,4353.0
61.773147384,4412.0
61.789858653,4380.0
61.806569922,4394.0
61.823281191,4389.0
61.839992460,4326.0
61.856703729,4375.0
61.873414998,4334.0
61.890126267,4480.0
61.906837536,4497.0
61.923548805,4451.0
61.940260074,4408.0
61.956971343,4357.0
61.973682612,4406.0
61.990393881,4487.0
62.007105150,4440.0
62.023816419,4382.0
62.040527688,4478.0
62.057238957,4402.0
62.073950226,4327.0
62.090661495,4403.0
62.107372764,4323.0
62.124084033,4366.0
62.140795302,4414.0
62.157506571,4355.0
62.174217840,4370.0
62.190929109,4498.0
62.207640378,4380.0
62.224351647,4417.0
62.241062916,4447.0
62.257774185,4370.0
62.274485454,4405.0
62.291196723,4417.0
62.307907992,4516.0
62.324619261,4336.0
62.341330530,4353.0
62.358041799,4364.0
62.374753068,4422.0
62.391464337,4370.0
62.408175606,4263.0
62.424886875,4455.0
62.441598144,4387.0
62.458309413,4310.0
62.475020682,4452.0
62.491731951,4483.0
62.508443219,4492.0
62.525154488,4306.0
62.541865757,4334.0
62.558577026,4366.0
62.575288295,4382.0
62.591999564,4480.0
62.608710833,4301.0
62.625422102,4418.0
62.642133371,4367.0
62.658844640,4286.0
62.675555909,4334.0
62.692267178,4410.0
62.708978447,4408.0
62.725689716,4374.0
62.742400985,4443.0
62.759112254,4433.0
62.775823523,4378.0
62.792534792,4397.0
62.809246061,4392.0
62.825957330,4403.0
62.842668599,4375.0
62.859379868,4486.0
62.876091137,4491.0
62.892802406,4368.0
62.909513675,4454.0
62.926224944,4384.0
62.942936213,4360.0
62.959647482,4442.0
62.976358751,4352.0
62.993070020,4366.0
63.009781289,4327.0
63.026492558,4336.0
63.043203827,4375.0
63.059915096,4488.0
63.076626365,4263.0
63.093337634,4415.0
63.110048903,4469.0
63.126760172,4390.0
63.143471441,4337.0
63.160182710,4549.0
63.176893979,4422.0
63.193605248,4378.0
63.210316517,4317.0
63.227027786,4251.0
63.243739055,4334.0
63.260450324,4367.0
63.277161593,4412.0
63.293872862,4435.0
63.310584130,4346.0
63.327295399,4389.0
63.344006668,4396.0
63.360717937,4389.0
63.377429206,4411.0
63.394140475,4407.0
63.410851744,4330.0
63.427563013,4482.0
63.444274282,4385.0
63.460985551,4434.0
63.477696820,4487.0
63.494408089,4521.0
63.511119358,4508.0
63.527830627,4356.0
63.544541896,4283.0
63.561253165,4508.0
63.577964434,4362.0
63.594675703,4362.0
63.611386972,4453.0
63.628098241,4372.0
63.644809510,4420.0
63.661520779,4376.0
63.678232048,4364.0
63.694943317,4379.0
63.711654586,4396.0
63.728365855,4402.0
63.745077124,4465.0
63.761788393,4449.0
63.778499662,4366.0
63.795210931,4422.0
63.811922200,4429.0
63.828633469,4310.0
63.845344738,4388.0
63.862056007,4318.0
63.878767276,4330.0
63.895478545,4355.0
63.912189814,4460.0
63.928901083,4355.0
63.945612352,4416.0
63.962323621,4480.0
63.979034890,4329.0
63.995746159,4348.0
64.012457428,4459.0
64.029168697,4254.0
64.045879966,4365.0
64.062591235,4366.0
64.079302504,4455.0
64.096013773,4274.0
64.112725041,4293.0
64.129436310,4389.0
64.146147579,4478.0
64.162858848,4404.0
64.179570117,4299.0
64.196281386,4347.0
64.212992655,4372.0
64.229703924,4411.0
64.246415193,4348.0
64.263126462,4429.0
64.279837731,4346.0
64.296549000,4387.0
64.313260269,4328.0
64.329971538,4438.0
64.346682807,4377.0
64.363394076,4356.0
64.380105345,4332.0
64.396816614,4328.0
64.413527883,4365.0
64.430239152,4369.0
64.446950421,4449.0
64.463661690,4396.0
64.480372959,4334.0
64.497084228,4326.0
64.513795497,4314.0
64.530506766,4468.0
64.547218035,4392.0
64.563929304,4447.0
64.580640573,4455.0
64.597351842,4380.0
64.614063111,4331.0
64.630774380,4418.0
64.647485649,4358.0
64.664196918,4436.0
64.680908187,4406.0
64.697619456,4458.0
64.714330725,4310.0
64.731041994,4583.0
64.747753263,4305.0
64.764464532,4416.0
64.781175801,4400.0
64.797887070,4480.0
64.814598339,4265.0
64.831309608,4336.0
64.848020877,4324.0
64.864732146,4334.0
64.881443415,4251.0
64.898154684,4443.0
64.914865953,4371.0
64.931577221,4349.0
64.948288490,4431.0
64.964999759,4495.0
64.981711028,4362.0
64.998422297,4454.0
65.015133566,4346.0
65.031844835,4429.0
65.048556104,4281.0
65.065267373,4462.0
65.081978642,4413.0
65.098689911,4435.0
65.115401180,4442.0
65.132112449,4388.0
65.148823718,4450.0
65.165534987,4289.0
65.182246256,4392.0
65.198957525,4435.0
65.215668794,4328.0
65.232380063,4326.0
65.249091332,4457.0
65.265802601,4390.0
65.282513870,4378.0
65.299225139,4416.0
65.315936408,4321.0
65.332647677,4433.0
65.349358946,4510.0
65.366070215,4296.0
65.382781484,4312.0
65.399492753,4418.0
65.416204022,4455.0
65.432915291,4304.0
65.449626560,4335.0
65.466337829,4426.0
65.483049098,4423.0
65.499760367,4450.0
65.516471636,4352.0
65.533182905,4420.0
65.549894174,4453.0
65.566605443,4263.0
65.583316712,4350.0
65.600027981,4508.0
65.616739250,4422.0
65.633450519,4394.0
65.650161788,4466.0
65.666873057,4450.0
65.683584326,4596.0
65.700295595,4436.0
65.717006864,4625.0
65.733718132,4426.0
65.750429401,4549.0
65.767140670,4508.0
65.783851939,4474.0
65.800563208,4417.0
65.817274477,4433.0
65.833985746,4368.0
65.850697015,4353.0
65.867408284,4490.0
65.884119553,4457.0
65.900830822,4450.0
65.917542091,4348.0
65.934253360,4370.0
65.950964629,4352.0
65.967675898,4323.0
65.984387167,4451.0
66.001098436,4382.0
66.017809705,4323.0
66.034520974,4413.0
66.051232243,4274.0
66.067943512,4362.0
66.084654781,4375.0
66.101366050,4446.0
66.118077319,4439.0
66.134788588,4346.0
66.151499857,4352.0
66.168211126,4511.0
66.184922395,4310.0
66.201633664,4339.0
66.218344933,4454.0
66.235056202,4375.0
66.251767471,4399.0
66.268478740,4377.0
66.285190009,4314.0
66.301901278,4487.0
66.318612547,4355.0
66.335323816,4325.0
66.352035085,4408.0
66.368746354,4437.0
66.385457623,4346.0
66.402168892,4411.0
66.418880161,4387.0
66.435591430,4415.0
66.452302699,4559.0
66.469013968,4428.0
66.485725237,4379.0
66.502436506,4353.0
66.519147775,4337.0
66.535859043,4368.0
66.552570312,4328.0
66.569281581,4333.0
66.585992850,4390.0
66.602704119,4386.0
66.619415388,4457.0
66.636126657,4302.0
66.652837926,4504.0
66.669549195,4498.0
66.686260464,4431.0
66.702971733,4364.0
66.719683002,4402.0
66.736394271,4314.0
66.753105540,4413.0
66.769816809,4364.0
66.786528078,4351.0
66.803239347,4474.0
66.819950616,4290.0
66.836661885,4348.0
66.853373154,4387.0
66.870084423,4291.0
66.886795692,4448.0
66.903506961,4522.0
66.920218230,4251.0
66.936929499,4423.0
66.953640768,4337.0
66.970352037,4368.0
66.987063306,4383.0
67.003774575,4288.0
67.020485844,4416.0
67.037197113,4366.0
67.053908382,4535.0
67.070619651,4310.0
67.087330920,4384.0
67.104042189,4387.0
67.120753458,4502.0
67.137464727,4468.0
67.154175996,4381.0
67.170887265,4410.0
67.187598534,4333.0
67.204309803,4268.0
67.221021072,4445.0
67.237732341,4322.0
67.254443610,4305.0
67.271154879,4326.0
67.287866148,4291.0
67.304577417,4356.0
67.321288686,4420.0
67.337999954,4357.0
67.354711223,4422.0
67.371422492,4459.0
67.388133761,4454.0
67.404845030,4359.0
67.421556299,4424.0
67.438267568,4414.0
67.454978837,4381.0
67.471690106,4395.0
67.488401375,4433.0
67.505112644,4462.0
67.521823913,4408.0
67.538535182,4343.0
67.555246451,4535.0
67.571957720,4430.0
67.588668989,4398.0
67.605380258,4349.0
67.622091527,4321.0
67.638802796,4289.0
67.655514065,4434.0
67.672225334,4432.0
67.688936603,4461.0
67.705647872,4362.0
67.722359141,4351.0
67.739070410,4408.0
67.755781679,4416.0
67.772492948,4586.0
67.789204217,4460.0
67.805915486,4355.0
67.822626755,4580.0
67.839338024,4570.0
67.856049293,4623.0
67.872760562,4701.0
67.889471831,4652.0
67.906183100,4734.0
67.922894369,4815.0
67.939605638,4707.0
67.956316907,4398.0
67.973028176,4369.0
67.989739445,4458.0
68.006450714,4397.0
68.023161983,4485.0
68.039873252,4521.0
68.056584521,4530.0
68.073295790,4495.0
68.090007059,4486.0
68.106718328,4629.0
68.123429597,4355.0
68.140140866,4489.0
68.156852134,4365.0
68.173563403,4430.0
68.190274672,4498.0
68.206985941,4333.0
68.223697210,4290.0
68.240408479,4350.0
68.257119748,4359.0
68.273831017,4410.0
68.290542286,4348.0
68.307253555,4391.0
68.323964824,4323.0
68.340676093,4371.0
68.357387362,4402.0
68.374098631,4411.0
68.390809900,4341.0
68.407521169,4456.0
68.424232438,4475.0
68.440943707,4372.0
68.457654976,4433.0
68.474366245,4386.0
68.491077514,4460.0
68.507788783,4416.0
68.524500052,4406.0
68.541211321,4195.0
68.557922590,4328.0
68.574633859,4337.0
68.591345128,4425.0
68.608056397,4420.0
68.624767666,4354.0
68.641478935,4401.0
68.658190204,4288.0
68.674901473,4400.0
68.691612742,4241.0
68.708324011,4405.0
68.725035280,4475.0
68.741746549,4340.0
68.758457818,4346.0
68.775169087,4305.0
68.791880356,4432.0
68.808591625,4342.0
68.825302894,4369.0
68.842014163,4351.0
68.858725432,4415.0
68.875436701,4420.0
68.892147970,4493.0
68.908859239,4402.0
68.925570508,4365.0
68.942281777,4291.0
68.958993045,4348.0
68.975704314,4518.0
68.992415583,4345.0
69.009126852,4353.0
69.025838121,4491.0
69.042549390,4461.0
69.059260659,4299.0
69.075971928,4324.0
69.092683197,4460.0
69.109394466,4214.0
69.126105735,4517.0
69.142817004,4292.0
69.159528273,4372.0
69.176239542,4409.0
69.192950811,4464.0
69.209662080,4425.0
69.226373349,4321.0
69.243084618,4442.0
69.259795887,4408.0
69.276507156,4326.0
69.293218425,4377.0
69.309929694,4367.0
69.326640963,4414.0
69.343352232,4421.0
69.360063501,4238.0
69.376774770,4377.0
69.393486039,4366.0
69.410197308,4424.0
69.426908577,4334.0
69.443619846,4513.0
69.460331115,4401.0
69.477042384,4462.0
69.493753653,4341.0
69.510464922,4422.0
69.527176191,4459.0
69.543887460,4531.0
69.560598729,4322.0
69.577309998,4365.0
69.594021267,4300.0
69.610732536,4375.0
69.627443805,4358.0
69.644155074,4443.0
69.660866343,4441.0
69.677577612,4416.0
69.694288881,4398.0
69.711000150,4480.0
69.727711419,4435.0
69.744422688,4306.0
69.761133956,4274.0
69.777845225,4308.0
69.794556494,4467.0
69.811267763,4284.0
69.827979032,4338.0
69.844690301,4321.0
69.861401570,4411.0
69.878112839,4460.0
69.894824108,4403.0
69.911535377,4408.0
69.928246646,4354.0
69.944957915,4381.0
69.961669184,4481.0
69.978380453,4350.0
69.995091722,4419.0
70.011802991,4296.0
70.028514260,4347.0
70.045225529,4460.0
70.061936798,4402.0
70.078648067,4397.0
70.095359336,4507.0
70.112070605,4366.0
70.128781874,4276.0
70.145493143,4321.0
70.162204412,4244.0
70.178915681,4493.0
70.195626950,4391.0
70.212338219,4403.0
70.229049488,4419.0
70.245760757,4325.0
70.262472026,4413.0
70.279183295,4409.0
70.295894564,4341.0
70.312605833,4361.0
70.329317102,4303.0
70.346028371,4460.0
70.362739640,4448.0
70.379450909,4348.0
70.396162178,4341.0
70.412873447,4392.0
70.429584716,4470.0
70.446295985,4310.0
70.463007254,4254.0
70.479718523,4567.0
70.496429792,4331.0
70.513141061,4454.0
70.529852330,4307.0
70.546563599,4445.0
70.563274867,4375.0
70.579986136,4465.0
70.596697405,4378.0
70.613408674,4354.0
70.630119943,4451.0
70.646831212,4364.0
70.663542481,4376.0
70.680253750,4366.0
70.696965019,4392.0
70.713676288,4322.0
70.730387557,4265.0
70.747098826,4338.0
70.763810095,4400.0
70.780521364,4416.0
70.797232633,4432.0
70.813943902,4460.0
70.830655171,4493.0
70.847366440,4468.0
70.864077709,4451.0
70.880788978,4450.0
70.897500247,4307.0
70.914211516,4364.0
70.930922785,4445.0
70.947634054,4453.0
70.964345323,4593.0
70.981056592,4668.0
70.997767861,4589.0
71.014479130,4676.0
71.031190399,4488.0
71.047901668,4418.0
71.064612937,4426.0
71.081324206,4561.0
71.098035475,4471.0
71.114746744,4454.0
71.131458013,4467.0
71.148169282,4501.0
71.164880551,4571.0
71.181591820,4450.0
71.198303089,4492.0
71.215014358,4565.0
71.231725627,4413.0
71.248436896,4367.0
71.265148165,4502.0
71.281859434,4544.0
71.298570703,4469.0
71.315281972,4434.0
71.331993241,4397.0
71.348704510,4492.0
71.365415779,4453.0
71.382127047,4603.0
71.398838316,4477.0
71.415549585,4542.0
71.432260854,4428.0
71.448972123,4508.0
71.465683392,4399.0
71.482394661,4565.0
71.499105930,4336.0
71.515817199,4517.0
71.532528468,4468.0
71.549239737,4383.0
71.565951006,4456.0
71.582662275,4366.0
71.599373544,4445.0
71.616084813,4545.0
71.632796082,4656.0
71.649507351,4453.0
71.666218620,4468.0
71.682929889,4507.0
71.699641158,4432.0
71.716352427,4601.0
71.733063696,4600.0
71.749774965,4523.0
71.766486234,4508.0
71.783197503,4445.0
71.799908772,4520.0
71.816620041,4511.0
71.833331310,4436.0
71.850042579,4463.0
71.866753848,4655.0
71.883465117,4431.0
71.900176386,4518.0
71.916887655,4470.0
71.933598924,4430.0
71.950310193,4510.0
71.967021462,4657.0
71.983732731,4530.0
72.000444000,4525.0
72.017155269,4506.0
72.033866538,4568.0
72.050577807,4540.0
72.067289076,4446.0
72.084000345,4469.0
72.100711614,4436.0
72.117422883,4500.0
72.134134152,4567.0
72.150845421,4585.0
72.167556690,4445.0
72.184267958,4535.0
72.200979227,4509.0
72.217690496,4554.0
72.234401765,4518.0
72.251113034,4562.0
72.267824303,4459.0
72.284535572,4548.0
72.301246841,4573.0
72.317958110,4636.0
72.334669379,4530.0
72.351380648,4551.0
72.368091917,4508.0
72.384803186,4320.0
72.401514455,4588.0
72.418225724,4588.0
72.434936993,4535.0
72.451648262,4414.0
72.468359531,4444.0
72.485070800,4450.0
72.501782069,4534.0
72.518493338,4609.0
72.535204607,4438.0
72.551915876,4462.0
72.568627145,4652.0
72.585338414,4598.0
72.602049683,4548.0
72.618760952,4554.0
72.635472221,4620.0
72.652183490,4519.0
72.668894759,4548.0
72.685606028,4534.0
72.702317297,4538.0
72.719028566,4563.0
72.735739835,4597.0
72.752451104,4469.0
72.769162373,4431.0
72.785873642,4659.0
72.802584911,4594.0
72.819296180,4629.0
72.836007449,4548.0
72.852718718,4503.0
72.869429987,4637.0
72.886141256,4518.0
72.902852525,4675.0
72.919563794,4669.0
72.936275063,4677.0
72.952986332,4566.0
72.969697601,4614.0
72.986408869,4564.0
73.003120138,4666.0
73.019831407,4604.0
73.036542676,4712.0
73.053253945,4525.0
73.069965214,4617.0
73.086676483,4675.0
73.103387752,4660.0
73.120099021,4643.0
73.136810290,4639.0
73.153521559,4796.0
73.170232828,4734.0
73.186944097,4703.0
73.203655366,4615.0
73.220366635,4742.0
73.237077904,4758.0
73.253789173,4665.0
73.270500442,4737.0
73.287211711,4918.0
73.303922980,4886.0
73.320634249,4898.0
73.337345518,4743.0
73.354056787,4848.0
73.370768056,4934.0
73.387479325,5237.0
73.404190594,5201.0
73.420901863,5180.0
73.437613132,5396.0
73.454324401,5387.0
73.471035670,5593.0
73.487746939,5531.0
73.504458208,5721.0
73.521169477,5586.0
73.537880746,5920.0
73.554592015,5995.0
73.571303284,6123.0
73.588014553,6286.0
73.604725822,6458.0
73.621437091,6807.0
73.638148360,7234.0
73.654859629,7778.0
73.671570898,8953.0
73.688282167,10605.0
73.704993436,13224.0
73.721704705,17756.0
73.738415974,24244.0
73.755127243,33285.0
73.771838512,42777.0
73.788549780,49536.0
73.805261049,51060.0
73.821972318,47745.0
73.838683587,40037.0
73.855394856,31176.0
73.872106125,22965.0
73.888817394,17562.0
73.905528663,14404.0
73.922239932,13645.0
73.938951201,14817.0
73.955662470,17299.0
73.972373739,21108.0
73.989085008,25236.0
74.005796277,27927.0
74.022507546,27941.0
74.039218815,25823.0
74.055930084,21688.0
74.072641353,17038.0
74.089352622,13357.0
74.106063891,10444.0
74.122775160,8542.0
74.139486429,7334.0
74.156197698,6511.0
74.172908967,6180.0
74.189620236,5897.0
74.206331505,5829.0
74.223042774,5582.0
74.239754043,5418.0
74.256465312,5498.0
74.273176581,5267.0
74.289887850,4945.0
74.306599119,5082.0
74.323310388,5049.0
74.340021657,5013.0
74.356732926,4959.0
74.373444195,4857.0
74.390155464,4744.0
74.406866733,4756.0
74.423578002,4875.0
74.440289271,4789.0
74.457000540,4759.0
74.473711809,4847.0
74.490423078,4650.0
74.507134347,4702.0
74.523845616,4760.0
74.540556885,4674.0
74.557268154,4619.0
74.573979423,4562.0
74.590690692,4597.0
74.607401960,4685.0
74.624113229,4654.0
74.640824498,4692.0
74.657535767,4742.0
74.674247036,4794.0
74.690958305,4603.0
74.707669574,4625.0
74.724380843,4562.0
74.741092112,4536.0
74.757803381,4577.0
74.774514650,4589.0
74.791225919,4578.0
74.807937188,4714.0
74.824648457,4577.0
74.841359726,4551.0
74.858070995,4636.0
74.874782264,4640.0
74.891493533,4618.0
74.908204802,4626.0
74.924916071,4605.0
74.941627340,4634.0
74.958338609,4540.0
74.975049878,4492.0
74.991761147,4430.0
75.008472416,4523.0
75.025183685,4423.0
75.041894954,4539.0
75.058606223,4565.0
75.075317492,4495.0
75.092028761,4566.0
75.108740030,4586.0
75.125451299,4574.0
75.142162568,4515.0
75.158873837,4561.0
75.175585106,4554.0
75.192296375,4520.0
75.209007644,4473.0
75.225718913,4709.0
75.242430182,4651.0
75.259141451,4541.0
75.275852720,4558.0
75.292563989,4474.0
75.309275258,4497.0
75.325986527,4464.0
75.342697796,4449.0
75.359409065,4471.0
75.376120334,4478.0
75.392831603,4472.0
75.409542871,4546.0
75.426254140,4542.0
75.442965409,4487.0
75.459676678,4506.0
75.476387947,4602.0
75.493099216,4468.0
75.509810485,4465.0
75.526521754,4437.0
75.543233023,4477.0
75.559944292,4471.0
75.576655561,4517.0
75.593366830,4478.0
75.610078099,4522.0
75.626789368,4374.0
75.643500637,4369.0
75.660211906,4547.0
75.676923175,4526.0
75.693634444,4545.0
75.710345713,4519.0
75.727056982,4490.0
75.743768251,4509.0
75.760479520,4552.0
75.777190789,4349.0
75.793902058,4435.0
75.810613327,4436.0
75.827324596,4534.0
75.844035865,4410.0
75.860747134,4449.0
75.877458403,4523.0
75.894169672,4516.0
75.910880941,4490.0
75.927592210,4472.0
75.944303479,4512.0
75.961014748,4546.0
75.977726017,4481.0
75.994437286,4509.0
76.011148555,4512.0
76.027859824,4477.0
76.044571093,4391.0
76.061282362,4460.0
76.077993631,4424.0
76.094704900,4449.0
76.111416169,4417.0
76.128127438,4493.0
76.144838707,4356.0
76.161549976,4495.0
76.178261245,4506.0
76.194972514,4403.0
76.211683782,4518.0
76.228395051,4472.0
76.245106320,4398.0
76.261817589,4497.0
76.278528858,4486.0
76.295240127,4470.0
76.311951396,4398.0
76.328662665,4449.0
76.345373934,4541.0
76.362085203,4491.0
76.378796472,4542.0
76.395507741,4401.0
76.412219010,4368.0
76.428930279,4528.0
76.445641548,4465.0
76.462352817,4426.0
76.479064086,4319.0
76.495775355,4504.0
76.512486624,4455.0
76.529197893,4498.0
76.545909162,4450.0
76.562620431,4566.0
76.579331700,4505.0
76.596042969,4415.0
76.612754238,4413.0
76.629465507,4432.0
76.646176776,4464.0
76.662888045,4481.0
76.679599314,4437.0
76.696310583,4446.0
76.713021852,4429.0
76.729733121,4492.0
76.746444390,4412.0
76.763155659,4463.0
76.779866928,4507.0
76.796578197,4501.0
76.813289466,4435.0
76.830000735,4488.0
76.846712004,4319.0
76.863423273,4494.0
76.880134542,4402.0
76.896845811,4447.0
76.913557080,4565.0
76.930268349,4413.0
76.946979618,4475.0
76.963690887,4614.0
76.980402156,4415.0
76.997113425,4445.0
77.013824693,4453.0
77.030535962,4479.0
77.047247231,4426.0
77.063958500,4319.0
77.080669769,4384.0
77.097381038,4415.0
77.114092307,4515.0
77.130803576,4574.0
77.147514845,4608.0
77.164226114,4474.0
77.180937383,4472.0
77.197648652,4417.0
77.214359921,4551.0
77.231071190,4374.0
77.247782459,4522.0
77.264493728,4519.0
77.281204997,4499.0
77.297916266,4446.0
77.314627535,4534.0
77.331338804,4532.0
77.348050073,4422.0
77.364761342,4404.0
77.381472611,4394.0
77.398183880,4435.0
77.414895149,4522.0
77.431606418,4499.0
77.448317687,4419.0
77.465028956,4515.0
77.481740225,4482.0
77.498451494,4359.0
77.515162763,4520.0
77.531874032,4458.0
77.548585301,4257.0
77.565296570,4416.0
77.582007839,4402.0
77.598719108,4538.0
77.615430377,4537.0
77.632141646,4391.0
77.648852915,4474.0
77.665564184,4229.0
77.682275453,4413.0
77.698986722,4402.0
77.715697991,4490.0
77.732409260,4507.0
77.749120529,4491.0
77.765831798,4483.0
77.782543067,4313.0
77.799254336,4359.0
77.815965605,4386.0
77.832676873,4421.0
77.849388142,4398.0
77.866099411,4580.0
77.882810680,4341.0
77.899521949,4348.0
77.916233218,4293.0
77.932944487,4437.0
77.949655756,4575.0
77.966367025,4425.0
77.983078294,4372.0
77.999789563,4324.0
78.016500832,4466.0
78.033212101,4412.0
78.049923370,4351.0
78.066634639,4365.0
78.083345908,4396.0
78.100057177,4259.0
78.116768446,4447.0
78.133479715,4321.0
78.150190984,4376.0
78.166902253,4416.0
78.183613522,4332.0
78.200324791,4368.0
78.217036060,4382.0
78.233747329,4344.0
78.250458598,4440.0
78.267169867,4446.0
78.283881136,4260.0
78.300592405,4452.0
78.317303674,4469.0
78.334014943,4394.0
78.350726212,4368.0
78.367437481,4458.0
78.384148750,4416.0
78.400860019,4438.0
78.417571288,4490.0
78.434282557,4462.0
78.450993826,4437.0
78.467705095,4410.0
78.484416364,4452.0
78.501127633,4322.0
78.517838902,4466.0
78.534550171,4390.0
78.551261440,4517.0
78.567972709,4320.0
78.584683978,4406.0
78.601395247,4325.0
78.618106516,4349.0
78.634817784,4456.0
78.651529053,4380.0
78.668240322,4365.0
78.684951591,4428.0
78.701662860,4434.0
78.718374129,4462.0
78.735085398,4483.0
78.751796667,4534.0
78.768507936,4431.0
78.785219205,4562.0
78.801930474,4361.0
78.818641743,4500.0
78.835353012,4593.0
78.852064281,4372.0
78.868775550,4506.0
78.885486819,4372.0
78.902198088,4371.0
78.918909357,4425.0
78.935620626,4343.0
78.952331895,4430.0
78.969043164,4491.0
78.985754433,4380.0
79.002465702,4426.0
79.019176971,4344.0
79.035888240,4479.0
79.052599509,4453.0
79.069310778,4414.0
79.086022047,4482.0
79.102733316,4472.0
79.119444585,4384.0
79.136155854,4392.0
79.152867123,4422.0
79.169578392,4402.0
79.186289661,4500.0
79.203000930,4542.0
79.219712199,4413.0
79.236423468,4378.0
79.253134737,4443.0
79.269846006,4419.0
79.286557275,4438.0
79.303268544,4454.0
79.319979813,4384.0
79.336691082,4521.0
79.353402351,4279.0
79.370113620,4420.0
79.386824889,4450.0
79.403536158,4440.0
79.420247427,4458.0
79.436958695,4309.0
79.453669964,4522.0
79.470381233,4488.0
79.487092502,4398.0
79.503803771,4440.0
79.520515040,4357.0
79.537226309,4437.0
79.553937578,4430.0
79.570648847,4448.0
79.587360116,4514.0
79.604071385,4344.0
79.620782654,4451.0
79.637493923,4352.0
79.654205192,4276.0
79.670916461,4315.0
79.687627730,4433.0
79.704338999,4446.0
79.721050268,4391.0
79.737761537,4474.0
79.754472806,4359.0
79.771184075,4472.0
79.787895344,4437.0
79.804606613,4434.0
79.821317882,4468.0
79.838029151,4423.0
79.854740420,4505.0
79.871451689,4465.0
79.888162958,4377.0
79.904874227,4446.0
79.921585496,4296.0
79.938296765,4388.0
79.955008034,4429.0
79.971719303,4429.0
79.988430572,4376.0
80.005141841,4444.0
80.021853110,4313.0
80.038564379,4383.0
80.055275648,4439.0
80.071986917,4335.0
80.088698186,4355.0
80.105409455,4390.0
80.122120724,4445.0
80.138831993,4436.0
80.155543262,4354.0
80.172254531,4404.0
80.188965800,4354.0
80.205677069,4440.0
80.222388338,4484.0
80.239099606,4300.0
80.255810875,4346.0
80.272522144,4437.0
80.289233413,4381.0
80.305944682,4406.0
80.322655951,4480.0
80.339367220,4388.0
80.356078489,4395.0
80.372789758,4352.0
80.389501027,4419.0
80.406212296,4410.0
80.422923565,4269.0
80.439634834,4497.0
80.456346103,4375.0
80.473057372,4428.0
80.489768641,4401.0
80.506479910,4454.0
80.523191179,4525.0
80.539902448,4495.0
80.556613717,4493.0
80.573324986,4395.0
80.590036255,4347.0
80.606747524,4358.0
80.623458793,4458.0
80.640170062,4407.0
80.656881331,4351.0
80.673592600,4425.0
80.690303869,4631.0
80.707015138,4437.0
80.723726407,4528.0
80.740437676,4435.0
80.757148945,4574.0
80.773860214,4444.0
80.790571483,4501.0
80.807282752,4508.0
80.823994021,4522.0
80.840705290,4418.0
80.857416559,4456.0
80.874127828,4400.0
80.890839097,4360.0
80.907550366,4489.0
80.924261635,4516.0
80.940972904,4430.0
80.957684173,4376.0
80.974395442,4416.0
80.991106711,4405.0
81.007817980,4389.0
81.024529249,4345.0
81.041240518,4386.0
81.057951786,4402.0
81.074663055,4539.0
81.091374324,4299.0
81.108085593,4491.0
81.124796862,4487.0
81.141508131,4478.0
81.158219400,4391.0
81.174930669,4461.0
81.191641938,4355.0
81.208353207,4391.0
81.225064476,4518.0
81.241775745,4465.0
81.258487014,4435.0
81.275198283,4431.0
81.291909552,4467.0
81.308620821,4360.0
81.325332090,4376.0
81.342043359,4372.0
81.358754628,4441.0
81.375465897,4330.0
81.392177166,4294.0
81.408888435,4400.0
81.425599704,4423.0
81.442310973,4416.0
81.459022242,4439.0
81.475733511,4338.0
81.492444780,4373.0
81.509156049,4413.0
81.525867318,4382.0
81.542578587,4495.0
81.559289856,4416.0
81.576001125,4445.0
81.592712394,4314.0
81.609423663,4383.0
81.626134932,4423.0
81.642846201,4455.0
81.659557470,4503.0
81.676268739,4352.0
81.692980008,4480.0
81.709691277,4385.0
81.726402546,4405.0
81.743113815,4448.0
81.759825084,4558.0
81.776536353,4413.0
81.793247622,4575.0
81.809958891,4500.0
81.826670160,4519.0
81.843381429,4543.0
81.860092697,4571.0
81.876803966,4536.0
81.893515235,4619.0
81.910226504,4562.0
81.926937773,4563.0
81.943649042,4395.0
81.960360311,4456.0
81.977071580,4481.0
81.993782849,4485.0
82.010494118,4467.0
82.027205387,4407.0
82.043916656,4614.0
82.060627925,4450.0
82.077339194,4513.0
82.094050463,4451.0
82.110761732,4593.0
82.127473001,4568.0
82.144184270,4482.0
82.160895539,4471.0
82.177606808,4480.0
82.194318077,4451.0
82.211029346,4326.0
82.227740615,4475.0
82.244451884,4449.0
82.261163153,4424.0
82.277874422,4444.0
82.294585691,4344.0
82.311296960,4489.0
82.328008229,4447.0
82.344719498,4526.0
82.361430767,4492.0
82.378142036,4301.0
82.394853305,4460.0
82.411564574,4338.0
82.428275843,4339.0
82.444987112,4384.0
82.461698381,4321.0
82.478409650,4423.0
82.495120919,4321.0
82.511832188,4482.0
82.528543457,4318.0
82.545254726,4354.0
82.561965995,4405.0
82.578677264,4444.0
82.595388533,4472.0
82.612099802,4369.0
82.628811071,4406.0
82.645522340,4296.0
82.662233608,4289.0
82.678944877,4472.0
82.695656146,4559.0
82.712367415,4500.0
82.729078684,4389.0
82.745789953,4522.0
82.762501222,4534.0
82.779212491,4326.0
82.795923760,4450.0
82.812635029,4280.0
82.829346298,4420.0
82.846057567,4395.0
82.862768836,4385.0
82.879480105,4281.0
82.896191374,4418.0
82.912902643,4321.0
82.929613912,4371.0
82.946325181,4507.0
82.963036450,4308.0
82.979747719,4426.0
82.996458988,4509.0
83.013170257,4408.0
83.029881526,4376.0
83.046592795,4481.0
83.063304064,4328.0
83.080015333,4424.0
83.096726602,4311.0
83.113437871,4375.0
83.130149140,4413.0
83.146860409,4318.0
83.163571678,4399.0
83.180282947,4538.0
83.196994216,4283.0
83.213705485,4328.0
83.230416754,4421.0
83.247128023,4390.0
83.263839292,4419.0
83.280550561,4366.0
83.297261830,4378.0
83.313973099,4402.0
83.330684368,4382.0
83.347395637,4365.0
83.364106906,4590.0
83.380818175,4472.0
83.397529444,4537.0
83.414240713,4446.0
83.430951982,4321.0
83.447663251,4290.0
83.464374519,4394.0
83.481085788,4279.0
83.497797057,4399.0
83.514508326,4411.0
83.531219595,4439.0
83.547930864,4334.0
83.564642133,4499.0
83.581353402,4288.0
83.598064671,4392.0
83.614775940,4492.0
83.631487209,4418.0
83.648198478,4394.0
83.664909747,4454.0
83.681621016,4379.0
83.698332285,4380.0
83.715043554,4402.0
83.731754823,4265.0
83.748466092,4425.0
83.765177361,4411.0
83.781888630,4370.0
83.798599899,4325.0
83.815311168,4362.0
83.832022437,4346.0
83.848733706,4234.0
83.865444975,4364.0
83.882156244,4201.0
83.898867513,4341.0
83.915578782,4453.0
83.932290051,4330.0
83.949001320,4425.0
83.965712589,4424.0
83.982423858,4346.0
83.999135127,4408.0
84.015846396,4450.0
84.032557665,4285.0
84.049268934,4429.0
84.065980203,4330.0
84.082691472,4269.0
84.099402741,4418.0
84.116114010,4394.0
84.132825279,4191.0
84.149536548,4481.0
84.166247817,4430.0
84.182959086,4398.0
84.199670355,4483.0
84.216381624,4289.0
84.233092893,4369.0
84.249804162,4377.0
84.266515431,4500.0
84.283226699,4411.0
84.299937968,4359.0
84.316649237,4515.0
84.333360506,4533.0
84.350071775,4391.0
84.366783044,4365.0
84.383494313,4382.0
84.400205582,4399.0
84.416916851,4350.0
84.433628120,4468.0
84.450339389,4369.0
84.467050658,4481.0
84.483761927,4338.0
84.500473196,4521.0
84.517184465,4430.0
84.533895734,4390.0
84.550607003,4428.0
84.567318272,4411.0
84.584029541,4450.0
84.600740810,4370.0
84.617452079,4446.0
84.634163348,4398.0
84.650874617,4537.0
84.667585886,4347.0
84.684297155,4232.0
84.701008424,4429.0
84.717719693,4548.0
84.734430962,4440.0
84.751142231,4499.0
84.767853500,4392.0
84.784564769,4364.0
84.801276038,4386.0
84.817987307,4304.0
84.834698576,4455.0
84.851409845,4439.0
84.868121114,4489.0
84.884832383,4472.0
84.901543652,4253.0
84.918254921,4289.0
84.934966190,4344.0
84.951677459,4497.0
84.968388728,4387.0
84.985099997,4282.0
85.001811266,4266.0
85.018522535,4447.0
85.035233804,4340.0
85.051945073,4420.0
85.068656342,4485.0
85.085367610,4366.0
85.102078879,4374.0
85.118790148,4258.0
85.135501417,4268.0
85.152212686,4347.0
85.168923955,4442.0
85.185635224,4328.0
85.202346493,4453.0
85.219057762,4363.0
85.235769031,4400.0
85.252480300,4427.0
85.269191569,4398.0
85.285902838,4430.0
85.302614107,4322.0
85.319325376,4351.0
85.336036645,4481.0
85.352747914,4354.0
85.369459183,4335.0
85.386170452,4248.0
85.402881721,4364.0
85.419592990,4443.0
85.436304259,4222.0
85.453015528,4429.0
85.469726797,4256.0
85.486438066,4427.0
85.503149335,4487.0
85.519860604,4350.0
85.536571873,4484.0
85.553283142,4401.0
85.569994411,4415.0
85.586705680,4343.0
85.603416949,4438.0
85.620128218,4360.0
85.636839487,4466.0
85.653550756,4328.0
85.670262025,4441.0
85.686973294,4394.0
85.703684563,4404.0
85.720395832,4439.0
85.737107101,4360.0
85.753818370,4415.0
85.770529639,4341.0
85.787240908,4518.0
85.803952177,4495.0
85.820663446,4404.0
85.837374715,4352.0
85.854085984,4476.0
85.870797253,4502.0
85.887508521,4392.0
85.904219790,4509.0
85.920931059,4509.0
85.937642328,4441.0
85.954353597,4391.0
85.971064866,4473.0
85.987776135,4404.0
86.004487404,4329.0
86.021198673,4336.0
86.037909942,4341.0
86.054621211,4423.0
86.071332480,4406.0
86.088043749,4533.0
86.104755018,4455.0
86.121466287,4376.0
86.138177556,4505.0
86.154888825,4433.0
86.171600094,4449.0
86.188311363,4313.0
86.205022632,4435.0
86.221733901,4463.0
86.238445170,4547.0
86.255156439,4428.0
86.271867708,4529.0
86.288578977,4494.0
86.305290246,4398.0
86.322001515,4408.0
86.338712784,4280.0
86.355424053,4381.0
86.372135322,4437.0
86.388846591,4573.0
86.405557860,4488.0
86.422269129,4451.0
86.438980398,4491.0
86.455691667,4558.0
86.472402936,4409.0
86.489114205,4449.0
86.505825474,4477.0
86.522536743,4342.0
86.539248012,4497.0
86.555959281,4355.0
86.572670550,4431.0
86.589381819,4369.0
86.606093088,4422.0
86.622804357,4389.0
86.639515626,4384.0
86.656226895,4336.0
86.672938164,4379.0
86.689649432,4448.0
86.706360701,4519.0
86.723071970,4445.0
86.739783239,4410.0
86.756494508,4380.0
86.773205777,4490.0
86.789917046,4407.0
86.806628315,4369.0
86.823339584,4416.0
86.840050853,4632.0
86.856762122,4497.0
86.873473391,4421.0
86.890184660,4428.0
86.906895929,4545.0
86.923607198,4405.0
86.940318467,4494.0
86.957029736,4513.0
86.973741005,4390.0
86.990452274,4448.0
87.007163543,4392.0
87.023874812,4427.0
87.040586081,4441.0
87.057297350,4566.0
87.074008619,4389.0
87.090719888,4424.0
87.107431157,4474.0
87.124142426,4467.0
87.140853695,4425.0
87.157564964,4414.0
87.174276233,4388.0
87.190987502,4339.0
87.207698771,4426.0
87.224410040,4401.0
87.241121309,4383.0
87.257832578,4502.0
87.274543847,4440.0
87.291255116,4355.0
87.307966385,4502.0
87.324677654,4420.0
87.341388923,4339.0
87.358100192,4498.0
87.374811461,4491.0
87.391522730,4373.0
87.408233999,4356.0
87.424945268,4485.0
87.441656537,4338.0
87.458367806,4399.0
87.475079075,4528.0
87.491790344,4536.0
87.508501612,4443.0
87.525212881,4504.0
87.541924150,4533.0
87.558635419,4479.0
87.575346688,4428.0
87.592057957,4512.0
87.608769226,4509.0
87.625480495,4431.0
87.642191764,4440.0
87.658903033,4408.0
87.675614302,4578.0
87.692325571,4471.0
87.709036840,4348.0
87.725748109,4557.0
87.742459378,4373.0
87.759170647,4451.0
87.775881916,4473.0
87.792593185,4322.0
87.809304454,4384.0
87.826015723,4390.0
87.842726992,4450.0
87.859438261,4265.0
87.876149530,4474.0
87.892860799,4380.0
87.909572068,4456.0
87.926283337,4400.0
87.942994606,4428.0
87.959705875,4377.0
87.976417144,4475.0
87.993128413,4506.0
88.009839682,4503.0
88.026550951,4433.0
88.043262220,4420.0
88.059973489,4447.0
88.076684758,4532.0
88.093396027,4499.0
88.110107296,4436.0
88.126818565,4443.0
88.143529834,4555.0
88.160241103,4397.0
88.176952372,4453.0
88.193663641,4476.0
88.210374910,4511.0
88.227086179,4365.0
88.243797448,4464.0
88.260508717,4534.0
88.277219986,4359.0
88.293931255,4450.0
88.310642523,4379.0
88.327353792,4372.0
88.344065061,4370.0
88.360776330,4365.0
88.377487599,4439.0
88.394198868,4580.0
88.410910137,4335.0
88.427621406,4497.0
88.444332675,4560.0
88.461043944,4500.0
88.477755213,4491.0
88.494466482,4499.0
88.511177751,4428.0
88.527889020,4485.0
88.544600289,4551.0
88.561311558,4464.0
88.578022827,4393.0
88.594734096,4492.0
88.611445365,4681.0
88.628156634,4589.0
88.644867903,4554.0
88.661579172,4546.0
88.678290441,4487.0
88.695001710,4346.0
88.711712979,4444.0
88.728424248,4346.0
88.745135517,4489.0
88.761846786,4331.0
88.778558055,4457.0
88.795269324,4388.0
88.811980593,4492.0
88.828691862,4506.0
88.845403131,4494.0
88.862114400,4521.0
88.878825669,4450.0
88.895536938,4503.0
88.912248207,4396.0
88.928959476,4552.0
88.945670745,4581.0
88.962382014,4497.0
88.979093283,4527.0
88.995804552,4663.0
89.012515821,4580.0
89.029227090,4699.0
89.045938359,4662.0
89.062649628,4546.0
89.079360897,4693.0
89.096072166,4601.0
89.112783434,4645.0
89.129494703,4612.0
89.146205972,4632.0
89.162917241,4696.0
89.179628510,4794.0
89.196339779,4800.0
89.213051048,4783.0
89.229762317,4927.0
89.246473586,4877.0
89.263184855,4848.0
89.279896124,5012.0
89.296607393,5056.0
89.313318662,5062.0
89.330029931,5397.0
89.346741200,5363.0
89.363452469,5562.0
89.380163738,5764.0
89.396875007,5896.0
89.413586276,6528.0
89.430297545,7019.0
89.447008814,8148.0
89.463720083,9671.0
89.480431352,11784.0
89.497142621,13981.0
89.513853890,16621.0
89.530565159,18504.0
89.547276428,19441.0
89.563987697,18780.0
89.580698966,16677.0
89.597410235,14400.0
89.614121504,12145.0
89.630832773,10042.0
89.647544042,8573.0
89.664255311,7663.0
89.680966580,7097.0
89.697677849,7019.0
89.714389118,6984.0
89.731100387,7310.0
89.747811656,7874.0
89.764522925,8723.0
89.781234194,9676.0
89.797945463,10852.0
89.814656732,11835.0
89.831368001,11703.0
89.848079270,11666.0
89.864790539,10616.0
89.881501808,9624.0
89.898213077,8295.0
89.914924345,7443.0
89.931635614,6434.0
89.948346883,6038.0
89.965058152,5639.0
89.981769421,5390.0
89.998480690,5170.0
90.015191959,5157.0
90.031903228,5033.0
90.048614497,4981.0
90.065325766,4922.0
90.082037035,5005.0
90.098748304,4819.0
90.115459573,4617.0
90.132170842,4628.0
90.148882111,4678.0
90.165593380,4751.0
90.182304649,4580.0
90.199015918,4613.0
90.215727187,4564.0
90.232438456,4558.0
90.249149725,4628.0
90.265860994,4677.0
90.282572263,4588.0
90.299283532,4449.0
90.315994801,4442.0
90.332706070,4473.0
90.349417339,4602.0
90.366128608,4385.0
90.382839877,4508.0
90.399551146,4492.0
90.416262415,4388.0
90.432973684,4487.0
90.449684953,4452.0
90.466396222,4382.0
90.483107491,4514.0
90.499818760,4543.0
90.516530029,4403.0
90.533241298,4530.0
90.549952567,4379.0
90.566663836,4398.0
90.583375105,4481.0
90.600086374,4408.0
90.616797643,4561.0
90.633508912,4412.0
90.650220181,4390.0
90.666931450,4514.0
90.683642719,4539.0
90.700353988,4469.0
90.717065257,4581.0
90.733776525,4389.0
90.750487794,4549.0
90.767199063,4471.0
90.783910332,4421.0
90.800621601,4525.0
90.817332870,4607.0
90.834044139,4399.0
90.850755408,4494.0
90.867466677,4528.0
90.884177946,4442.0
90.900889215,4457.0
90.917600484,4349.0
90.934311753,4492.0
90.951023022,4524.0
90.967734291,4556.0
90.984445560,4472.0
91.001156829,4448.0
91.017868098,4631.0
91.034579367,4490.0
91.051290636,4475.0
91.068001905,4538.0
91.084713174,4385.0
91.101424443,4451.0
91.118135712,4399.0
91.134846981,4473.0
91.151558250,4407.0
91.168269519,4381.0
91.184980788,4351.0
91.201692057,4593.0
91.218403326,4538.0
91.235114595,4391.0
91.251825864,4477.0
91.268537133,4415.0
91.285248402,4532.0
91.301959671,4529.0
91.318670940,4375.0
91.335382209,4417.0
91.352093478,4546.0
91.368804747,4529.0
91.385516016,4393.0
91.402227285,4439.0
91.418938554,4325.0
91.435649823,4539.0
91.452361092,4493.0
91.469072361,4427.0
91.485783630,4484.0
91.502494899,4522.0
91.519206168,4340.0
91.535917436,4272.0
91.552628705,4450.0
91.569339974,4415.0
91.586051243,4387.0
91.602762512,4542.0
91.619473781,4476.0
91.636185050,4418.0
91.652896319,4356.0
91.669607588,4502.0
91.686318857,4412.0
91.703030126,4545.0
91.719741395,4438.0
91.736452664,4488.0
91.753163933,4402.0
91.769875202,4368.0
91.786586471,4400.0
91.803297740,4469.0
91.820009009,4470.0
91.836720278,4483.0
91.853431547,4530.0
91.870142816,4505.0
91.886854085,4450.0
91.903565354,4472.0
91.920276623,4441.0
91.936987892,4481.0
91.953699161,4591.0
91.970410430,4602.0
91.987121699,4301.0
92.003832968,4354.0
92.020544237,4428.0
92.037255506,4554.0
92.053966775,4326.0
92.070678044,4367.0
92.087389313,4361.0
92.104100582,4369.0
92.120811851,4521.0
92.137523120,4541.0
92.154234389,4386.0
92.170945658,4475.0
92.187656927,4448.0
92.204368196,4455.0
92.221079465,4464.0
92.237790734,4591.0
92.254502003,4421.0
92.271213272,4466.0
92.287924541,4425.0
92.304635810,4444.0
92.321347079,4418.0
92.338058347,4551.0
92.354769616,4450.0
92.371480885,4358.0
92.388192154,4356.0
92.404903423,4339.0
92.421614692,4544.0
92.438325961,4413.0
92.455037230,4460.0
92.471748499,4320.0
92.488459768,4409.0
92.505171037,4318.0
92.521882306,4547.0
92.538593575,4437.0
92.555304844,4509.0
92.572016113,4571.0
92.588727382,4444.0
92.605438651,4389.0
92.622149920,4517.0
92.638861189,4421.0
92.655572458,4427.0
92.672283727,4310.0
92.688994996,4393.0
92.705706265,4443.0
92.722417534,4371.0
92.739128803,4318.0
92.755840072,4374.0
92.772551341,4517.0
92.789262610,4414.0
92.805973879,4584.0
92.822685148,4349.0
92.839396417,4551.0
92.856107686,4346.0
92.872818955,4449.0
92.889530224,4408.0
92.906241493,4430.0
92.922952762,4534.0
92.939664031,4460.0
92.956375300,4414.0
92.973086569,4439.0
92.989797838,4456.0
93.006509107,4317.0
93.023220376,4437.0
93.039931645,4380.0
93.056642914,4495.0
93.073354183,4420.0
93.090065452,4450.0
93.106776721,4470.0
93.123487990,4404.0
93.140199258,4419.0
93.156910527,4569.0
93.173621796,4483.0
93.190333065,4554.0
93.207044334,4494.0
93.223755603,4484.0
93.240466872,4436.0
93.257178141,4543.0
93.273889410,4455.0
93.290600679,4492.0
93.307311948,4478.0
93.324023217,4486.0
93.340734486,4523.0
93.357445755,4598.0
93.374157024,4488.0
93.390868293,4457.0
93.407579562,4465.0
93.424290831,4501.0
93.441002100,4568.0
93.457713369,4570.0
93.474424638,4455.0
93.491135907,4420.0
93.507847176,4443.0
93.524558445,4634.0
93.541269714,4470.0
93.557980983,4475.0
93.574692252,4591.0
93.591403521,4493.0
93.608114790,4503.0
93.624826059,4531.0
93.641537328,4523.0
93.658248597,4445.0
93.674959866,4541.0
93.691671135,4419.0
93.708382404,4513.0
93.725093673,4493.0
93.741804942,4406.0
93.758516211,4390.0
93.775227480,4511.0
93.791938749,4450.0
93.808650018,4549.0
93.825361287,4459.0
93.842072556,4418.0
93.858783825,4599.0
93.875495094,4404.0
93.892206363,4375.0
93.908917632,4522.0
93.925628901,4509.0
93.942340170,4542.0
93.959051438,4516.0
93.975762707,4540.0
93.992473976,4487.0
94.009185245,4556.0
94.025896514,4528.0
94.042607783,4485.0
94.059319052,4371.0
94.076030321,4564.0
94.092741590,4614.0
94.109452859,4618.0
94.126164128,4566.0
94.142875397,4590.0
94.159586666,4575.0
94.176297935,4604.0
94.193009204,4664.0
94.209720473,4801.0
94.226431742,4631.0
94.243143011,4678.0
94.259854280,4618.0
94.276565549,4730.0
94.293276818,4677.0
94.309988087,4854.0
94.326699356,4723.0
94.343410625,4782.0
94.360121894,4733.0
94.376833163,4708.0
94.393544432,4818.0
94.410255701,4934.0
94.426966970,4820.0
94.443678239,4761.0
94.460389508,5026.0
94.477100777,4931.0
94.493812046,5100.0
94.510523315,5247.0
94.527234584,5193.0
94.543945853,5382.0
94.560657122,5478.0
94.577368391,5758.0
94.594079660,6255.0
94.610790929,6676.0
94.627502198,7557.0
94.644213467,8826.0
94.660924736,10507.0
94.677636005,13498.0
94.694347274,16622.0
94.711058543,19913.0
94.727769812,21831.0
94.744481081,21312.0
94.761192349,19442.0
94.777903618,16363.0
94.794614887,13282.0
94.811326156,10961.0
94.828037425,8948.0
94.844748694,7782.0
94.861459963,6859.0
94.878171232,6686.0
94.894882501,6414.0
94.911593770,6458.0
94.928305039,6561.0
94.945016308,6958.0
94.961727577,7622.0
94.978438846,8551.0
94.995150115,9985.0
95.011861384,11368.0
95.028572653,12683.0
95.045283922,13012.0
95.061995191,12422.0
95.078706460,11360.0
95.095417729,9921.0
95.112128998,8419.0
95.128840267,7247.0
95.145551536,6537.0
95.162262805,6006.0
95.178974074,5661.0
95.195685343,5427.0
95.212396612,5164.0
95.229107881,5081.0
95.245819150,4983.0
95.262530419,4746.0
95.279241688,4930.0
95.295952957,4721.0
95.312664226,4701.0
95.329375495,4642.0
95.346086764,4670.0
95.362798033,4702.0
95.379509302,4680.0
95.396220571,4600.0
95.412931840,4633.0
95.429643109,4637.0
95.446354378,4537.0
95.463065647,4620.0
95.479776916,4494.0
95.496488185,4574.0
95.513199454,4624.0
95.529910723,4515.0
95.546621992,4475.0
95.563333260,4513.0
95.580044529,4600.0
95.596755798,4499.0
95.613467067,4561.0
95.630178336,4559.0
95.646889605,4555.0
95.663600874,4483.0
95.680312143,4488.0
95.697023412,4569.0
95.713734681,4338.0
95.730445950,4510.0
95.747157219,4568.0
95.763868488,4488.0
95.780579757,4427.0
95.797291026,4509.0
95.814002295,4495.0
95.830713564,4545.0
95.847424833,4354.0
95.864136102,4471.0
95.880847371,4344.0
95.897558640,4431.0
95.914269909,4471.0
95.930981178,4452.0
95.947692447,4440.0
95.964403716,4453.0
95.981114985,4603.0
95.997826254,4462.0
96.014537523,4360.0
96.031248792,4479.0
96.047960061,4536.0
96.064671330,4291.0
96.081382599,4319.0
96.098093868,4243.0
96.114805137,4495.0
96.131516406,4322.0
96.148227675,4530.0
96.164938944,4480.0
96.181650213,4468.0
96.198361482,4523.0
96.215072751,4392.0
96.231784020,4439.0
96.248495289,4362.0
96.265206558,4578.0
96.281917827,4337.0
96.298629096,4354.0
96.315340365,4394.0
96.332051634,4518.0
96.348762903,4496.0
96.365474171,4434.0
96.382185440,4479.0
96.398896709,4432.0
96.415607978,4301.0
96.432319247,4191.0
96.449030516,4451.0
96.465741785,4524.0
96.482453054,4411.0
96.499164323,4395.0
96.515875592,4466.0
96.532586861,4543.0
96.549298130,4546.0
96.566009399,4519.0
96.582720668,4508.0
96.599431937,4489.0
96.616143206,4445.0
96.632854475,4621.0
96.649565744,4477.0
96.666277013,4412.0
96.682988282,4394.0
96.699699551,4511.0
96.716410820,4446.0
96.733122089,4451.0
96.749833358,4458.0
96.766544627,4602.0
96.783255896,4487.0
96.799967165,4372.0
96.816678434,4522.0
96.833389703,4402.0
96.850100972,4485.0
96.866812241,4489.0
96.883523510,4406.0
96.900234779,4383.0
96.916946048,4590.0
96.933657317,4439.0
96.950368586,4399.0
96.967079855,4497.0
96.983791124,4361.0
97.000502393,4385.0
97.017213662,4402.0
97.033924931,4386.0
97.050636200,4369.0
97.067347469,4470.0
97.084058738,4410.0
97.100770007,4378.0
97.117481276,4559.0
97.134192545,4450.0
97.150903814,4464.0
97.167615083,4241.0
97.184326351,4461.0
97.201037620,4446.0
97.217748889,4419.0
97.234460158,4371.0
97.251171427,4357.0
97.267882696,4278.0
97.284593965,4352.0
97.301305234,4413.0
97.318016503,4281.0
97.334727772,4520.0
97.351439041,4419.0
97.368150310,4368.0
97.384861579,4338.0
97.401572848,4278.0
97.418284117,4400.0
97.434995386,4336.0
97.451706655,4365.0
97.468417924,4542.0
97.485129193,4445.0
97.501840462,4339.0
97.518551731,4300.0
97.535263000,4412.0
97.551974269,4384.0
97.568685538,4482.0
97.585396807,4328.0
97.602108076,4382.0
97.618819345,4564.0
97.635530614,4456.0
97.652241883,4336.0
97.668953152,4375.0
97.685664421,4243.0
97.702375690,4328.0
97.719086959,4424.0
97.735798228,4354.0
97.752509497,4391.0
97.769220766,4490.0
97.785932035,4337.0
97.802643304,4316.0
97.819354573,4473.0
97.836065842,4329.0
97.852777111,4488.0
97.869488380,4425.0
97.886199649,4418.0
97.902910918,4426.0
97.919622187,4333.0
97.936333456,4394.0
97.953044725,4453.0
97.969755994,4518.0
97.986467262,4381.0
98.003178531,4422.0
98.019889800,4433.0
98.036601069,4375.0
98.053312338,4286.0
98.070023607,4483.0
98.086734876,4411.0
98.103446145,4275.0
98.120157414,4412.0
98.136868683,4341.0
98.153579952,4336.0
98.170291221,4306.0
98.187002490,4523.0
98.203713759,4393.0
98.220425028,4456.0
98.237136297,4335.0
98.253847566,4304.0
98.270558835,4431.0
98.287270104,4466.0
98.303981373,4355.0
98.320692642,4491.0
98.337403911,4422.0
98.354115180,4420.0
98.370826449,4440.0
98.387537718,4445.0
98.404248987,4465.0
98.420960256,4227.0
98.437671525,4416.0
98.454382794,4377.0
98.471094063,4346.0
98.487805332,4481.0
98.504516601,4408.0
98.521227870,4433.0
98.537939139,4381.0
98.554650408,4351.0
98.571361677,4520.0
98.588072946,4374.0
98.604784215,4338.0
98.621495484,4427.0
98.638206753,4434.0
98.654918022,4343.0
98.671629291,4314.0
98.688340560,4456.0
98.705051829,4369.0
98.721763098,4366.0
98.738474367,4380.0
98.755185636,4427.0
98.771896905,4372.0
98.788608173,4413.0
98.805319442,4327.0
98.822030711,4309.0
98.838741980,4394.0
98.855453249,4395.0
98.872164518,4430.0
98.888875787,4357.0
98.905587056,4301.0
98.922298325,4297.0
98.939009594,4440.0
98.955720863,4493.0
98.972432132,4433.0
98.989143401,4415.0
99.005854670,4322.0
99.022565939,4552.0
99.039277208,4444.0
99.055988477,4520.0
99.072699746,4357.0
99.089411015,4276.0
99.106122284,4471.0
99.122833553,4392.0
99.139544822,4443.0
99.156256091,4315.0
99.172967360,4412.0
99.189678629,4385.0
99.206389898,4373.0
99.223101167,4445.0
99.239812436,4401.0
99.256523705,4487.0
99.273234974,4452.0
99.289946243,4363.0
99.306657512,4430.0
99.323368781,4456.0
99.340080050,4554.0
99.356791319,4386.0
99.373502588,4249.0
99.390213857,4416.0
99.406925126,4361.0
99.423636395,4567.0
99.440347664,4344.0
99.457058933,4322.0
99.473770202,4308.0
99.490481471,4344.0
99.507192740,4249.0
99.523904009,4356.0
99.540615278,4306.0
99.557326547,4431.0
99.574037816,4438.0
99.590749084,4422.0
99.607460353,4364.0
99.624171622,4241.0
99.640882891,4230.0
99.657594160,4590.0
99.674305429,4272.0
99.691016698,4275.0
99.707727967,4417.0
99.724439236,4363.0
99.741150505,4526.0
99.757861774,4378.0
99.774573043,4402.0
99.791284312,4381.0
99.807995581,4498.0
99.824706850,4417.0
99.841418119,4380.0
99.858129388,4397.0
99.874840657,4302.0
99.891551926,4481.0
99.908263195,4422.0
99.924974464,4490.0
99.941685733,4335.0
99.958397002,4429.0
99.975108271,4388.0
99.991819540,4409.0
