[Measurement conditions]
Sample identification,
Comment - 1,"finito"
Comment - 2,"Configuration=MRI TC-Basic Stage, Owner=User-1, Creation date=26-10-2009 9:18:44"
Comment - 3,"Goniometer=PW3050/60 (Theta/Theta); Minimum step size 2Theta:0.001; Minimum step size Omega:0.001"
Comment - 4,"Sample stage=MRI TC-Basic (PtRh heat strip)"
Comment - 5,"Diffractometer system=XPERT-PRO"
Comment - 6,"Measurement program=FlatStage, Owner=joana, Creation date=03-08-2011 15:43:53"
Anode material,Cu
K-Alpha1 wavelength,1.5405980
K-Alpha2 wavelength,1.5444260
Ratio K-Alpha2/K-Alpha1,0.500
Divergence slit,Fixed,0.76mm
Monochromator used,NO
Generator voltage, 45
Tube current, 40
File date and time,07/Dec/2012 00:14
Unit cell,
h k l, 0 0 0
Temperature [K],723
Scan axis,Gonio
Scan range,24.999999996,100.000175174
Scan step size,0.0167113
No. of points, 4488
Scan type,CONTINUOUS
Time per step,53.340
[Scan points]
Angle,Intensity
25.008355630,2098.0
25.025066899,2131.0
25.041778168,2140.0
25.058489437,2188.0
25.075200706,2218.0
25.091911975,2248.0
25.108623244,2158.0
25.125334513,2219.0
25.142045782,2230.0
25.158757051,2179.0
25.175468320,2174.0
25.192179589,2157.0
25.208890858,2102.0
25.225602127,2129.0
25.242313396,2195.0
25.259024665,2236.0
25.275735934,2213.0
25.292447203,2149.0
25.309158472,2175.0
25.325869741,2171.0
25.342581010,2194.0
25.359292279,2146.0
25.376003548,2141.0
25.392714817,2187.0
25.409426086,2253.0
25.426137354,2201.0
25.442848623,2211.0
25.459559892,2208.0
25.476271161,2259.0
25.492982430,2209.0
25.509693699,2168.0
25.526404968,2073.0
25.543116237,2215.0
25.559827506,2196.0
25.576538775,2160.0
25.593250044,2190.0
25.609961313,2241.0
25.626672582,2125.0
25.643383851,2087.0
25.660095120,2225.0
25.676806389,2167.0
25.693517658,2255.0
25.710228927,2272.0
25.726940196,2231.0
25.743651465,2208.0
25.760362734,2254.0
25.777074003,2200.0
25.793785272,2192.0
25.810496541,2155.0
25.827207810,2243.0
25.843919079,2201.0
25.860630348,2204.0
25.877341617,2180.0
25.894052886,2233.0
25.910764155,2242.0
25.927475424,2219.0
25.944186693,2190.0
25.960897962,2147.0
25.977609231,2210.0
25.994320500,2182.0
26.011031769,2314.0
26.027743038,2208.0
26.044454307,2264.0
26.061165576,2300.0
26.077876845,2261.0
26.094588114,2313.0
26.111299383,2251.0
26.128010652,2255.0
26.144721921,2263.0
26.161433190,2216.0
26.178144459,2269.0
26.194855728,2244.0
26.211566997,2256.0
26.228278265,2230.0
26.244989534,2218.0
26.261700803,2295.0
26.278412072,2250.0
26.295123341,2211.0
26.311834610,2210.0
26.328545879,2211.0
26.345257148,2334.0
26.361968417,2262.0
26.378679686,2184.0
26.395390955,2194.0
26.412102224,2283.0
26.428813493,2203.0
26.445524762,2223.0
26.462236031,2267.0
26.478947300,2173.0
26.495658569,2272.0
26.512369838,2311.0
26.529081107,2128.0
26.545792376,2275.0
26.562503645,2329.0
26.579214914,2364.0
26.595926183,2288.0
26.612637452,2274.0
26.629348721,2270.0
26.646059990,2304.0
26.662771259,2183.0
26.679482528,2224.0
26.696193797,2348.0
26.712905066,2255.0
26.729616335,2308.0
26.746327604,2296.0
26.763038873,2250.0
26.779750142,2197.0
26.796461411,2171.0
26.813172680,2299.0
26.829883949,2229.0
26.846595218,2275.0
26.863306487,2270.0
26.880017756,2277.0
26.896729025,2272.0
26.913440294,2219.0
26.930151563,2326.0
26.946862832,2330.0
26.963574101,2297.0
26.980285370,2208.0
26.996996639,2339.0
27.013707908,2269.0
27.030419176,2349.0
27.047130445,2201.0
27.063841714,2327.0
27.080552983,2328.0
27.097264252,2331.0
27.113975521,2360.0
27.130686790,2336.0
27.147398059,2305.0
27.164109328,2278.0
27.180820597,2380.0
27.197531866,2351.0
27.214243135,2335.0
27.230954404,2410.0
27.247665673,2225.0
27.264376942,2361.0
27.281088211,2292.0
27.297799480,2197.0
27.314510749,2279.0
27.331222018,2254.0
27.347933287,2309.0
27.364644556,2325.0
27.381355825,2325.0
27.398067094,2319.0
27.414778363,2409.0
27.431489632,2289.0
27.448200901,2320.0
27.464912170,2367.0
27.481623439,2396.0
27.498334708,2352.0
27.515045977,2305.0
27.531757246,2338.0
27.548468515,2400.0
27.565179784,2445.0
27.581891053,2378.0
27.598602322,2402.0
27.615313591,2369.0
27.632024860,2274.0
27.648736129,2238.0
27.665447398,2411.0
27.682158667,2302.0
27.698869936,2359.0
27.715581205,2278.0
27.732292474,2369.0
27.749003743,2321.0
27.765715012,2444.0
27.782426281,2380.0
27.799137550,2384.0
27.815848819,2480.0
27.832560087,2392.0
27.849271356,2354.0
27.865982625,2385.0
27.882693894,2395.0
27.899405163,2397.0
27.916116432,2394.0
27.932827701,2437.0
27.949538970,2426.0
27.966250239,2394.0
27.982961508,2425.0
27.999672777,2382.0
28.016384046,2341.0
28.033095315,2300.0
28.049806584,2398.0
28.066517853,2348.0
28.083229122,2447.0
28.099940391,2323.0
28.116651660,2459.0
28.133362929,2487.0
28.150074198,2411.0
28.166785467,2422.0
28.183496736,2406.0
28.200208005,2462.0
28.216919274,2403.0
28.233630543,2303.0
28.250341812,2494.0
28.267053081,2392.0
28.283764350,2471.0
28.300475619,2475.0
28.317186888,2476.0
28.333898157,2314.0
28.350609426,2517.0
28.367320695,2322.0
28.384031964,2377.0
28.400743233,2368.0
28.417454502,2511.0
28.434165771,2372.0
28.450877040,2413.0
28.467588309,2414.0
28.484299578,2475.0
28.501010847,2355.0
28.517722116,2378.0
28.534433385,2440.0
28.551144654,2293.0
28.567855923,2452.0
28.584567192,2434.0
28.601278461,2439.0
28.617989730,2377.0
28.634700999,2474.0
28.651412267,2335.0
28.668123536,2435.0
28.684834805,2537.0
28.701546074,2507.0
28.718257343,2371.0
28.734968612,2463.0
28.751679881,2497.0
28.768391150,2446.0
28.785102419,2532.0
28.801813688,2434.0
28.818524957,2577.0
28.835236226,2472.0
28.851947495,2416.0
28.868658764,2410.0
28.885370033,2486.0
28.902081302,2502.0
28.918792571,2357.0
28.935503840,2488.0
28.952215109,2486.0
28.968926378,2412.0
28.985637647,2554.0
29.002348916,2492.0
29.019060185,2592.0
29.035771454,2487.0
29.052482723,2604.0
29.069193992,2501.0
29.085905261,2642.0
29.102616530,2571.0
29.119327799,2488.0
29.136039068,2683.0
29.152750337,2655.0
29.169461606,2771.0
29.186172875,2789.0
29.202884144,2846.0
29.219595413,2881.0
29.236306682,3086.0
29.253017951,3076.0
29.269729220,3302.0
29.286440489,3324.0
29.303151758,3465.0
29.319863027,3604.0
29.336574296,3469.0
29.353285565,3766.0
29.369996834,3750.0
29.386708103,3704.0
29.403419372,3770.0
29.420130641,3486.0
29.436841910,3541.0
29.453553178,3565.0
29.470264447,3480.0
29.486975716,3236.0
29.503686985,3214.0
29.520398254,3168.0
29.537109523,3030.0
29.553820792,3058.0
29.570532061,2743.0
29.587243330,2843.0
29.603954599,2714.0
29.620665868,2724.0
29.637377137,2638.0
29.654088406,2595.0
29.670799675,2584.0
29.687510944,2664.0
29.704222213,2640.0
29.720933482,2634.0
29.737644751,2666.0
29.754356020,2579.0
29.771067289,2655.0
29.787778558,2466.0
29.804489827,2503.0
29.821201096,2547.0
29.837912365,2605.0
29.854623634,2567.0
29.871334903,2503.0
29.888046172,2384.0
29.904757441,2481.0
29.921468710,2567.0
29.938179979,2567.0
29.954891248,2447.0
29.971602517,2537.0
29.988313786,2492.0
30.005025055,2586.0
30.021736324,2581.0
30.038447593,2520.0
30.055158862,2550.0
30.071870131,2500.0
30.088581400,2501.0
30.105292669,2512.0
30.122003938,2469.0
30.138715207,2576.0
30.155426476,2607.0
30.172137745,2602.0
30.188849014,2495.0
30.205560283,2549.0
30.222271552,2583.0
30.238982821,2558.0
30.255694089,2551.0
30.272405358,2598.0
30.289116627,2545.0
30.305827896,2532.0
30.322539165,2413.0
30.339250434,2497.0
30.355961703,2493.0
30.372672972,2520.0
30.389384241,2553.0
30.406095510,2520.0
30.422806779,2601.0
30.439518048,2534.0
30.456229317,2628.0
30.472940586,2540.0
30.489651855,2585.0
30.506363124,2600.0
30.523074393,2567.0
30.539785662,2631.0
30.556496931,2577.0
30.573208200,2578.0
30.589919469,2511.0
30.606630738,2552.0
30.623342007,2591.0
30.640053276,2620.0
30.656764545,2677.0
30.673475814,2422.0
30.690187083,2520.0
30.706898352,2615.0
30.723609621,2678.0
30.740320890,2559.0
30.757032159,2531.0
30.773743428,2586.0
30.790454697,2447.0
30.807165966,2562.0
30.823877235,2554.0
30.840588504,2709.0
30.857299773,2565.0
30.874011042,2577.0
30.890722311,2546.0
30.907433580,2543.0
30.924144849,2498.0
30.940856118,2590.0
30.957567387,2512.0
30.974278656,2587.0
30.990989925,2615.0
31.007701194,2478.0
31.024412463,2546.0
31.041123732,2488.0
31.057835000,2619.0
31.074546269,2646.0
31.091257538,2610.0
31.107968807,2578.0
31.124680076,2686.0
31.141391345,2544.0
31.158102614,2557.0
31.174813883,2511.0
31.191525152,2552.0
31.208236421,2653.0
31.224947690,2609.0
31.241658959,2632.0
31.258370228,2606.0
31.275081497,2509.0
31.291792766,2574.0
31.308504035,2618.0
31.325215304,2658.0
31.341926573,2561.0
31.358637842,2664.0
31.375349111,2742.0
31.392060380,2671.0
31.408771649,2544.0
31.425482918,2592.0
31.442194187,2647.0
31.458905456,2604.0
31.475616725,2628.0
31.492327994,2601.0
31.509039263,2665.0
31.525750532,2605.0
31.542461801,2673.0
31.559173070,2702.0
31.575884339,2570.0
31.592595608,2555.0
31.609306877,2650.0
31.626018146,2672.0
31.642729415,2671.0
31.659440684,2741.0
31.676151953,2668.0
31.692863222,2600.0
31.709574491,2575.0
31.726285760,2735.0
31.742997029,2711.0
31.759708298,2650.0
31.776419567,2638.0
31.793130836,2737.0
31.809842105,2683.0
31.826553374,2724.0
31.843264643,2705.0
31.859975912,2674.0
31.876687180,2576.0
31.893398449,2694.0
31.910109718,2577.0
31.926820987,2719.0
31.943532256,2698.0
31.960243525,2840.0
31.976954794,2699.0
31.993666063,2703.0
32.010377332,2645.0
32.027088601,2648.0
32.043799870,2627.0
32.060511139,2628.0
32.077222408,2724.0
32.093933677,2707.0
32.110644946,2666.0
32.127356215,2634.0
32.144067484,2703.0
32.160778753,2756.0
32.177490022,2758.0
32.194201291,2774.0
32.210912560,2747.0
32.227623829,2714.0
32.244335098,2780.0
32.261046367,2781.0
32.277757636,2718.0
32.294468905,2731.0
32.311180174,2674.0
32.327891443,2741.0
32.344602712,2767.0
32.361313981,2780.0
32.378025250,2680.0
32.394736519,2757.0
32.411447788,2621.0
32.428159057,2741.0
32.444870326,2657.0
32.461581595,2739.0
32.478292864,2753.0
32.495004133,2740.0
32.511715402,2773.0
32.528426671,2747.0
32.545137940,2737.0
32.561849209,2790.0
32.578560478,2815.0
32.595271747,2707.0
32.611983016,2886.0
32.628694285,2708.0
32.645405554,2656.0
32.662116823,2773.0
32.678828091,2722.0
32.695539360,2670.0
32.712250629,2722.0
32.728961898,2764.0
32.745673167,2757.0
32.762384436,2794.0
32.779095705,2620.0
32.795806974,2812.0
32.812518243,2729.0
32.829229512,2798.0
32.845940781,2700.0
32.862652050,2795.0
32.879363319,2789.0
32.896074588,2673.0
32.912785857,2661.0
32.929497126,2830.0
32.946208395,2761.0
32.962919664,2753.0
32.979630933,2768.0
32.996342202,2683.0
33.013053471,2799.0
33.029764740,2678.0
33.046476009,2774.0
33.063187278,2824.0
33.079898547,2820.0
33.096609816,2689.0
33.113321085,2790.0
33.130032354,2803.0
33.146743623,2847.0
33.163454892,2774.0
33.180166161,2758.0
33.196877430,2734.0
33.213588699,2874.0
33.230299968,2763.0
33.247011237,2707.0
33.263722506,2701.0
33.280433775,2703.0
33.297145044,2757.0
33.313856313,2875.0
33.330567582,2809.0
33.347278851,2742.0
33.363990120,2753.0
33.380701389,2763.0
33.397412658,2712.0
33.414123927,2771.0
33.430835196,2751.0
33.447546465,2834.0
33.464257734,2791.0
33.480969002,2722.0
33.497680271,2839.0
33.514391540,2719.0
33.531102809,2971.0
33.547814078,2725.0
33.564525347,2810.0
33.581236616,2809.0
33.597947885,2705.0
33.614659154,2845.0
33.631370423,2849.0
33.648081692,2849.0
33.664792961,2823.0
33.681504230,2741.0
33.698215499,2854.0
33.714926768,2763.0
33.731638037,2744.0
33.748349306,2803.0
33.765060575,2865.0
33.781771844,2794.0
33.798483113,2981.0
33.815194382,2872.0
33.831905651,2890.0
33.848616920,2828.0
33.865328189,2853.0
33.882039458,2898.0
33.898750727,2890.0
33.915461996,2870.0
33.932173265,2898.0
33.948884534,2896.0
33.965595803,2872.0
33.982307072,2809.0
33.999018341,2909.0
34.015729610,2772.0
34.032440879,2876.0
34.049152148,2846.0
34.065863417,2737.0
34.082574686,2907.0
34.099285955,2767.0
34.115997224,2936.0
34.132708493,2881.0
34.149419762,2901.0
34.166131031,2839.0
34.182842300,2817.0
34.199553569,2898.0
34.216264838,2892.0
34.232976107,2861.0
34.249687376,2847.0
34.266398645,2792.0
34.283109913,2924.0
34.299821182,2827.0
34.316532451,2943.0
34.333243720,2965.0
34.349954989,2910.0
34.366666258,2841.0
34.383377527,2941.0
34.400088796,2962.0
34.416800065,2930.0
34.433511334,2833.0
34.450222603,2806.0
34.466933872,2926.0
34.483645141,2884.0
34.500356410,2948.0
34.517067679,3011.0
34.533778948,2934.0
34.550490217,2949.0
34.567201486,2776.0
34.583912755,2906.0
34.600624024,2921.0
34.617335293,2977.0
34.634046562,2951.0
34.650757831,2834.0
34.667469100,3008.0
34.684180369,2902.0
34.700891638,2940.0
34.717602907,2917.0
34.734314176,2887.0
34.751025445,2897.0
34.767736714,2943.0
34.784447983,2907.0
34.801159252,2986.0
34.817870521,2917.0
34.834581790,3110.0
34.851293059,3116.0
34.868004328,3077.0
34.884715597,2901.0
34.901426866,3026.0
34.918138135,3063.0
34.934849404,3033.0
34.951560673,3034.0
34.968271942,3067.0
34.984983211,3113.0
35.001694480,3094.0
35.018405749,3101.0
35.035117018,3057.0
35.051828287,3220.0
35.068539556,3148.0
35.085250825,3144.0
35.101962093,3123.0
35.118673362,3179.0
35.135384631,3200.0
35.152095900,3210.0
35.168807169,3261.0
35.185518438,3303.0
35.202229707,3346.0
35.218940976,3463.0
35.235652245,3459.0
35.252363514,3443.0
35.269074783,3523.0
35.285786052,3448.0
35.302497321,3534.0
35.319208590,3569.0
35.335919859,3587.0
35.352631128,3662.0
35.369342397,3673.0
35.386053666,3590.0
35.402764935,3624.0
35.419476204,3588.0
35.436187473,3516.0
35.452898742,3481.0
35.469610011,3507.0
35.486321280,3479.0
35.503032549,3412.0
35.519743818,3427.0
35.536455087,3433.0
35.553166356,3325.0
35.569877625,3476.0
35.586588894,3483.0
35.603300163,3233.0
35.620011432,3454.0
35.636722701,3365.0
35.653433970,3307.0
35.670145239,3357.0
35.686856508,3350.0
35.703567777,3378.0
35.720279046,3433.0
35.736990315,3512.0
35.753701584,3496.0
35.770412853,3416.0
35.787124122,3511.0
35.803835391,3692.0
35.820546660,3626.0
35.837257929,3749.0
35.853969198,3857.0
35.870680467,4064.0
35.887391736,4000.0
35.904103004,4177.0
35.920814273,4473.0
35.937525542,4765.0
35.954236811,5058.0
35.970948080,5367.0
35.987659349,5774.0
36.004370618,6170.0
36.021081887,6913.0
36.037793156,7826.0
36.054504425,8780.0
36.071215694,9816.0
36.087926963,11171.0
36.104638232,13113.0
36.121349501,14561.0
36.138060770,16188.0
36.154772039,17801.0
36.171483308,19561.0
36.188194577,21008.0
36.204905846,22083.0
36.221617115,22866.0
36.238328384,23187.0
36.255039653,23692.0
36.271750922,23138.0
36.288462191,22704.0
36.305173460,21621.0
36.321884729,20466.0
36.338595998,18822.0
36.355307267,17473.0
36.372018536,15917.0
36.388729805,14031.0
36.405441074,12868.0
36.422152343,11577.0
36.438863612,10395.0
36.455574881,9326.0
36.472286150,8155.0
36.488997419,7412.0
36.505708688,6635.0
36.522419957,6101.0
36.539131226,5656.0
36.555842495,5429.0
36.572553764,4874.0
36.589265033,4773.0
36.605976302,4531.0
36.622687571,4296.0
36.639398840,4119.0
36.656110109,4073.0
36.672821378,4055.0
36.689532647,3898.0
36.706243915,3804.0
36.722955184,3819.0
36.739666453,3692.0
36.756377722,3669.0
36.773088991,3623.0
36.789800260,3563.0
36.806511529,3580.0
36.823222798,3703.0
36.839934067,3515.0
36.856645336,3557.0
36.873356605,3457.0
36.890067874,3487.0
36.906779143,3473.0
36.923490412,3403.0
36.940201681,3313.0
36.956912950,3462.0
36.973624219,3374.0
36.990335488,3378.0
37.007046757,3414.0
37.023758026,3412.0
37.040469295,3327.0
37.057180564,3325.0
37.073891833,3388.0
37.090603102,3384.0
37.107314371,3387.0
37.124025640,3265.0
37.140736909,3307.0
37.157448178,3237.0
37.174159447,3340.0
37.190870716,3289.0
37.207581985,3298.0
37.224293254,3311.0
37.241004523,3454.0
37.257715792,3404.0
37.274427061,3266.0
37.291138330,3304.0
37.307849599,3313.0
37.324560868,3266.0
37.341272137,3294.0
37.357983406,3291.0
37.374694675,3306.0
37.391405944,3351.0
37.408117213,3351.0
37.424828482,3289.0
37.441539751,3321.0
37.458251020,3395.0
37.474962289,3358.0
37.491673558,3332.0
37.508384826,3273.0
37.525096095,3264.0
37.541807364,3282.0
37.558518633,3212.0
37.575229902,3249.0
37.591941171,3225.0
37.608652440,3302.0
37.625363709,3270.0
37.642074978,3283.0
37.658786247,3393.0
37.675497516,3290.0
37.692208785,3239.0
37.708920054,3256.0
37.725631323,3242.0
37.742342592,3396.0
37.759053861,3279.0
37.775765130,3296.0
37.792476399,3268.0
37.809187668,3314.0
37.825898937,3213.0
37.842610206,3328.0
37.859321475,3208.0
37.876032744,3320.0
37.892744013,3316.0
37.909455282,3360.0
37.926166551,3254.0
37.942877820,3241.0
37.959589089,3284.0
37.976300358,3338.0
37.993011627,3280.0
38.009722896,3265.0
38.026434165,3314.0
38.043145434,3331.0
38.059856703,3352.0
38.076567972,3381.0
38.093279241,3508.0
38.109990510,3376.0
38.126701779,3409.0
38.143413048,3454.0
38.160124317,3274.0
38.176835586,3307.0
38.193546855,3511.0
38.210258124,3436.0
38.226969393,3250.0
38.243680662,3433.0
38.260391931,3381.0
38.277103200,3390.0
38.293814469,3533.0
38.310525738,3560.0
38.327237006,3418.0
38.343948275,3439.0
38.360659544,3416.0
38.377370813,3416.0
38.394082082,3474.0
38.410793351,3494.0
38.427504620,3634.0
38.444215889,3600.0
38.460927158,3611.0
38.477638427,3555.0
38.494349696,3683.0
38.511060965,3720.0
38.527772234,3854.0
38.544483503,3812.0
38.561194772,3787.0
38.577906041,3794.0
38.594617310,3634.0
38.611328579,3704.0
38.628039848,3619.0
38.644751117,3615.0
38.661462386,3665.0
38.678173655,3613.0
38.694884924,3686.0
38.711596193,3578.0
38.728307462,3621.0
38.745018731,3521.0
38.761730000,3477.0
38.778441269,3466.0
38.795152538,3496.0
38.811863807,3408.0
38.828575076,3463.0
38.845286345,3412.0
38.861997614,3522.0
38.878708883,3398.0
38.895420152,3466.0
38.912131421,3378.0
38.928842690,3382.0
38.945553959,3456.0
38.962265228,3200.0
38.978976497,3429.0
38.995687766,3385.0
39.012399035,3394.0
39.029110304,3423.0
39.045821573,3319.0
39.062532842,3311.0
39.079244111,3379.0
39.095955380,3321.0
39.112666649,3447.0
39.129377917,3384.0
39.146089186,3362.0
39.162800455,3345.0
39.179511724,3320.0
39.196222993,3303.0
39.212934262,3364.0
39.229645531,3303.0
39.246356800,3399.0
39.263068069,3307.0
39.279779338,3462.0
39.296490607,3421.0
39.313201876,3464.0
39.329913145,3327.0
39.346624414,3432.0
39.363335683,3439.0
39.380046952,3467.0
39.396758221,3454.0
39.413469490,3340.0
39.430180759,3412.0
39.446892028,3336.0
39.463603297,3404.0
39.480314566,3414.0
39.497025835,3347.0
39.513737104,3451.0
39.530448373,3355.0
39.547159642,3327.0
39.563870911,3426.0
39.580582180,3367.0
39.597293449,3342.0
39.614004718,3329.0
39.630715987,3464.0
39.647427256,3337.0
39.664138525,3495.0
39.680849794,3362.0
39.697561063,3670.0
39.714272332,3640.0
39.730983601,3648.0
39.747694870,3592.0
39.764406139,3632.0
39.781117408,3608.0
39.797828677,3699.0
39.814539946,3669.0
39.831251215,3641.0
39.847962484,3526.0
39.864673753,3545.0
39.881385022,3414.0
39.898096291,3516.0
39.914807560,3586.0
39.931518828,3472.0
39.948230097,3325.0
39.964941366,3236.0
39.981652635,3412.0
39.998363904,3409.0
40.015075173,3330.0
40.031786442,3340.0
40.048497711,3406.0
40.065208980,3392.0
40.081920249,3423.0
40.098631518,3395.0
40.115342787,3410.0
40.132054056,3380.0
40.148765325,3390.0
40.165476594,3311.0
40.182187863,3424.0
40.198899132,3301.0
40.215610401,3321.0
40.232321670,3296.0
40.249032939,3388.0
40.265744208,3349.0
40.282455477,3502.0
40.299166746,3381.0
40.315878015,3349.0
40.332589284,3571.0
40.349300553,3397.0
40.366011822,3281.0
40.382723091,3505.0
40.399434360,3452.0
40.416145629,3481.0
40.432856898,3312.0
40.449568167,3451.0
40.466279436,3304.0
40.482990705,3330.0
40.499701974,3431.0
40.516413243,3421.0
40.533124512,3384.0
40.549835781,3319.0
40.566547050,3305.0
40.583258319,3562.0
40.599969588,3441.0
40.616680857,3460.0
40.633392126,3491.0
40.650103395,3426.0
40.666814664,3442.0
40.683525933,3490.0
40.700237202,3426.0
40.716948471,3513.0
40.733659739,3470.0
40.750371008,3459.0
40.767082277,3341.0
40.783793546,3574.0
40.800504815,3471.0
40.817216084,3466.0
40.833927353,3496.0
40.850638622,3458.0
40.867349891,3552.0
40.884061160,3522.0
40.900772429,3380.0
40.917483698,3513.0
40.934194967,3395.0
40.950906236,3452.0
40.967617505,3564.0
40.984328774,3493.0
41.001040043,3433.0
41.017751312,3452.0
41.034462581,3453.0
41.051173850,3526.0
41.067885119,3489.0
41.084596388,3562.0
41.101307657,3574.0
41.118018926,3497.0
41.134730195,3527.0
41.151441464,3530.0
41.168152733,3514.0
41.184864002,3531.0
41.201575271,3607.0
41.218286540,3494.0
41.234997809,3566.0
41.251709078,3561.0
41.268420347,3653.0
41.285131616,3702.0
41.301842885,3659.0
41.318554154,3790.0
41.335265423,3673.0
41.351976692,3846.0
41.368687961,3882.0
41.385399230,3885.0
41.402110499,3883.0
41.418821768,3901.0
41.435533037,4057.0
41.452244306,4025.0
41.468955575,4068.0
41.485666844,4094.0
41.502378113,4204.0
41.519089382,4142.0
41.535800651,4269.0
41.552511919,4369.0
41.569223188,4303.0
41.585934457,4358.0
41.602645726,4411.0
41.619356995,4383.0
41.636068264,4612.0
41.652779533,4664.0
41.669490802,4829.0
41.686202071,4803.0
41.702913340,4981.0
41.719624609,5007.0
41.736335878,5251.0
41.753047147,5336.0
41.769758416,5419.0
41.786469685,5657.0
41.803180954,5765.0
41.819892223,6095.0
41.836603492,6342.0
41.853314761,6544.0
41.870026030,6720.0
41.886737299,6998.0
41.903448568,7374.0
41.920159837,7406.0
41.936871106,7589.0
41.953582375,7850.0
41.970293644,8216.0
41.987004913,8048.0
42.003716182,8352.0
42.020427451,8036.0
42.037138720,8434.0
42.053849989,8383.0
42.070561258,8316.0
42.087272527,7928.0
42.103983796,8100.0
42.120695065,7731.0
42.137406334,7797.0
42.154117603,7492.0
42.170828872,7376.0
42.187540141,7231.0
42.204251410,7089.0
42.220962679,6619.0
42.237673948,6564.0
42.254385217,6347.0
42.271096486,6233.0
42.287807755,6022.0
42.304519024,5825.0
42.321230293,5793.0
42.337941562,5624.0
42.354652830,5348.0
42.371364099,5265.0
42.388075368,5237.0
42.404786637,5129.0
42.421497906,5072.0
42.438209175,5074.0
42.454920444,4930.0
42.471631713,4797.0
42.488342982,4907.0
42.505054251,4895.0
42.521765520,4860.0
42.538476789,4944.0
42.555188058,5038.0
42.571899327,5260.0
42.588610596,5290.0
42.605321865,5554.0
42.622033134,5776.0
42.638744403,6031.0
42.655455672,6462.0
42.672166941,6919.0
42.688878210,7368.0
42.705589479,7776.0
42.722300748,8375.0
42.739012017,9339.0
42.755723286,11173.0
42.772434555,13753.0
42.789145824,19051.0
42.805857093,27684.0
42.822568362,42187.0
42.839279631,67851.0
42.855990900,98981.0
42.872702169,113682.0
42.889413438,101545.0
42.906124707,85332.0
42.922835976,76807.0
42.939547245,77118.0
42.956258514,84472.0
42.972969783,92593.0
42.989681052,89274.0
43.006392321,74726.0
43.023103590,58691.0
43.039814859,46474.0
43.056526128,37690.0
43.073237397,31756.0
43.089948666,27318.0
43.106659935,22981.0
43.123371204,19408.0
43.140082473,15322.0
43.156793741,11619.0
43.173505010,9450.0
43.190216279,8027.0
43.206927548,7192.0
43.223638817,6458.0
43.240350086,5928.0
43.257061355,5511.0
43.273772624,5504.0
43.290483893,5367.0
43.307195162,5047.0
43.323906431,4930.0
43.340617700,4841.0
43.357328969,4713.0
43.374040238,4572.0
43.390751507,4496.0
43.407462776,4594.0
43.424174045,4471.0
43.440885314,4325.0
43.457596583,4436.0
43.474307852,4241.0
43.491019121,4205.0
43.507730390,4221.0
43.524441659,4282.0
43.541152928,4233.0
43.557864197,4284.0
43.574575466,4247.0
43.591286735,4283.0
43.607998004,4325.0
43.624709273,4115.0
43.641420542,4272.0
43.658131811,4328.0
43.674843080,4139.0
43.691554349,3952.0
43.708265618,4012.0
43.724976887,4160.0
43.741688156,3925.0
43.758399425,4032.0
43.775110694,3957.0
43.791821963,3870.0
43.808533232,3887.0
43.825244501,4058.0
43.841955770,3965.0
43.858667039,3896.0
43.875378308,4006.0
43.892089577,3943.0
43.908800846,3974.0
43.925512115,3908.0
43.942223384,3870.0
43.958934652,3754.0
43.975645921,3942.0
43.992357190,3996.0
44.009068459,3962.0
44.025779728,3844.0
44.042490997,3895.0
44.059202266,3950.0
44.075913535,3885.0
44.092624804,3855.0
44.109336073,3857.0
44.126047342,3754.0
44.142758611,3928.0
44.159469880,3910.0
44.176181149,3913.0
44.192892418,3727.0
44.209603687,3803.0
44.226314956,3885.0
44.243026225,3874.0
44.259737494,3850.0
44.276448763,3796.0
44.293160032,3838.0
44.309871301,3787.0
44.326582570,3873.0
44.343293839,3778.0
44.360005108,3866.0
44.376716377,3796.0
44.393427646,3823.0
44.410138915,3878.0
44.426850184,3815.0
44.443561453,3934.0
44.460272722,3767.0
44.476983991,3748.0
44.493695260,3906.0
44.510406529,3871.0
44.527117798,3846.0
44.543829067,3813.0
44.560540336,3816.0
44.577251605,3787.0
44.593962874,3888.0
44.610674143,3872.0
44.627385412,3846.0
44.644096681,3769.0
44.660807950,3897.0
44.677519219,3798.0
44.694230488,3833.0
44.710941757,3918.0
44.727653026,3771.0
44.744364295,3890.0
44.761075564,3783.0
44.777786832,3871.0
44.794498101,3973.0
44.811209370,3999.0
44.827920639,3986.0
44.844631908,4047.0
44.861343177,3994.0
44.878054446,3957.0
44.894765715,3925.0
44.911476984,4027.0
44.928188253,3910.0
44.944899522,3977.0
44.961610791,3906.0
44.978322060,3886.0
44.995033329,3912.0
45.011744598,3894.0
45.028455867,3991.0
45.045167136,3798.0
45.061878405,3763.0
45.078589674,3812.0
45.095300943,3776.0
45.112012212,3688.0
45.128723481,3791.0
45.145434750,3647.0
45.162146019,3711.0
45.178857288,3710.0
45.195568557,3780.0
45.212279826,3785.0
45.228991095,3772.0
45.245702364,3844.0
45.262413633,3707.0
45.279124902,3796.0
45.295836171,3734.0
45.312547440,3768.0
45.329258709,3735.0
45.345969978,3625.0
45.362681247,3744.0
45.379392516,3724.0
45.396103785,3821.0
45.412815054,3738.0
45.429526323,3750.0
45.446237592,3751.0
45.462948861,3783.0
45.479660130,3817.0
45.496371399,3717.0
45.513082668,3777.0
45.529793937,3745.0
45.546505206,3779.0
45.563216475,3760.0
45.579927743,3755.0
45.596639012,3646.0
45.613350281,3774.0
45.630061550,3738.0
45.646772819,3720.0
45.663484088,3680.0
45.680195357,3767.0
45.696906626,3813.0
45.713617895,3784.0
45.730329164,3830.0
45.747040433,3824.0
45.763751702,3745.0
45.780462971,3830.0
45.797174240,3776.0
45.813885509,3837.0
45.830596778,3785.0
45.847308047,3756.0
45.864019316,3649.0
45.880730585,3854.0
45.897441854,3777.0
45.914153123,3850.0
45.930864392,3736.0
45.947575661,3889.0
45.964286930,3739.0
45.980998199,3917.0
45.997709468,3790.0
46.014420737,3758.0
46.031132006,3796.0
46.047843275,3821.0
46.064554544,3894.0
46.081265813,3957.0
46.097977082,3959.0
46.114688351,3842.0
46.131399620,4014.0
46.148110889,4053.0
46.164822158,4109.0
46.181533427,4156.0
46.198244696,4352.0
46.214955965,4395.0
46.231667234,4961.0
46.248378503,5169.0
46.265089772,5779.0
46.281801041,5905.0
46.298512310,6090.0
46.315223579,6150.0
46.331934848,5827.0
46.348646117,5386.0
46.365357386,5304.0
46.382068654,5047.0
46.398779923,5064.0
46.415491192,4894.0
46.432202461,4959.0
46.448913730,4920.0
46.465624999,4530.0
46.482336268,4216.0
46.499047537,4073.0
46.515758806,4049.0
46.532470075,3859.0
46.549181344,3932.0
46.565892613,3935.0
46.582603882,3906.0
46.599315151,3840.0
46.616026420,3931.0
46.632737689,3950.0
46.649448958,3905.0
46.666160227,3853.0
46.682871496,3910.0
46.699582765,3943.0
46.716294034,3863.0
46.733005303,3822.0
46.749716572,3804.0
46.766427841,3835.0
46.783139110,3759.0
46.799850379,3771.0
46.816561648,3764.0
46.833272917,3658.0
46.849984186,3749.0
46.866695455,3728.0
46.883406724,3656.0
46.900117993,3733.0
46.916829262,3664.0
46.933540531,3752.0
46.950251800,3739.0
46.966963069,3678.0
46.983674338,3818.0
47.000385607,3830.0
47.017096876,3778.0
47.033808145,3709.0
47.050519414,3815.0
47.067230683,3682.0
47.083941952,3680.0
47.100653221,3721.0
47.117364490,3828.0
47.134075759,3553.0
47.150787028,3704.0
47.167498297,3760.0
47.184209565,3575.0
47.200920834,3493.0
47.217632103,3787.0
47.234343372,3806.0
47.251054641,3714.0
47.267765910,3711.0
47.284477179,3573.0
47.301188448,3714.0
47.317899717,3590.0
47.334610986,3726.0
47.351322255,3765.0
47.368033524,3682.0
47.384744793,3648.0
47.401456062,3760.0
47.418167331,3667.0
47.434878600,3669.0
47.451589869,3765.0
47.468301138,3669.0
47.485012407,3679.0
47.501723676,3724.0
47.518434945,3597.0
47.535146214,3672.0
47.551857483,3675.0
47.568568752,3730.0
47.585280021,3721.0
47.601991290,3615.0
47.618702559,3580.0
47.635413828,3690.0
47.652125097,3712.0
47.668836366,3691.0
47.685547635,3699.0
47.702258904,3769.0
47.718970173,3798.0
47.735681442,3544.0
47.752392711,3683.0
47.769103980,3731.0
47.785815249,3736.0
47.802526518,3717.0
47.819237787,3733.0
47.835949056,3827.0
47.852660325,3729.0
47.869371594,3792.0
47.886082863,3711.0
47.902794132,3610.0
47.919505401,3721.0
47.936216670,3583.0
47.952927939,3775.0
47.969639208,3786.0
47.986350477,3692.0
48.003061745,3717.0
48.019773014,3773.0
48.036484283,3812.0
48.053195552,3755.0
48.069906821,3713.0
48.086618090,3733.0
48.103329359,3896.0
48.120040628,3863.0
48.136751897,3878.0
48.153463166,3955.0
48.170174435,3920.0
48.186885704,3964.0
48.203596973,3853.0
48.220308242,4002.0
48.237019511,4146.0
48.253730780,4210.0
48.270442049,3959.0
48.287153318,4031.0
48.303864587,4090.0
48.320575856,4116.0
48.337287125,4120.0
48.353998394,4022.0
48.370709663,4139.0
48.387420932,4069.0
48.404132201,4058.0
48.420843470,4152.0
48.437554739,4131.0
48.454266008,4067.0
48.470977277,4149.0
48.487688546,4109.0
48.504399815,4204.0
48.521111084,4301.0
48.537822353,4230.0
48.554533622,4300.0
48.571244891,4324.0
48.587956160,4255.0
48.604667429,4269.0
48.621378698,4392.0
48.638089967,4244.0
48.654801236,4155.0
48.671512505,4214.0
48.688223774,4291.0
48.704935043,4085.0
48.721646312,4249.0
48.738357581,4178.0
48.755068850,4201.0
48.771780119,4190.0
48.788491388,4294.0
48.805202656,4090.0
48.821913925,4250.0
48.838625194,4141.0
48.855336463,4183.0
48.872047732,4115.0
48.888759001,4155.0
48.905470270,4080.0
48.922181539,4113.0
48.938892808,4066.0
48.955604077,4115.0
48.972315346,4090.0
48.989026615,4158.0
49.005737884,4073.0
49.022449153,4062.0
49.039160422,4053.0
49.055871691,4027.0
49.072582960,4329.0
49.089294229,4208.0
49.106005498,4152.0
49.122716767,4138.0
49.139428036,4025.0
49.156139305,4168.0
49.172850574,4176.0
49.189561843,4030.0
49.206273112,4209.0
49.222984381,4122.0
49.239695650,4063.0
49.256406919,4171.0
49.273118188,4166.0
49.289829457,4100.0
49.306540726,4257.0
49.323251995,4098.0
49.339963264,4147.0
49.356674533,4194.0
49.373385802,4149.0
49.390097071,4164.0
49.406808340,4336.0
49.423519609,4233.0
49.440230878,4289.0
49.456942147,4309.0
49.473653416,4269.0
49.490364685,4289.0
49.507075954,4499.0
49.523787223,4255.0
49.540498492,4424.0
49.557209761,4375.0
49.573921030,4533.0
49.590632299,4583.0
49.607343567,4768.0
49.624054836,4829.0
49.640766105,5029.0
49.657477374,5254.0
49.674188643,5496.0
49.690899912,5884.0
49.707611181,6169.0
49.724322450,6525.0
49.741033719,6751.0
49.757744988,6977.0
49.774456257,7385.0
49.791167526,7709.0
49.807878795,8493.0
49.824590064,9645.0
49.841301333,11379.0
49.858012602,14523.0
49.874723871,19600.0
49.891435140,29529.0
49.908146409,45087.0
49.924857678,70091.0
49.941568947,94640.0
49.958280216,106233.0
49.974991485,99834.0
49.991702754,86415.0
50.008414023,75892.0
50.025125292,70708.0
50.041836561,72615.0
50.058547830,80108.0
50.075259099,86992.0
50.091970368,86170.0
50.108681637,76698.0
50.125392906,62268.0
50.142104175,49118.0
50.158815444,39992.0
50.175526713,34191.0
50.192237982,29950.0
50.208949251,26609.0
50.225660520,23012.0
50.242371789,19366.0
50.259083058,15448.0
50.275794327,11983.0
50.292505596,9513.0
50.309216865,8275.0
50.325928134,7017.0
50.342639403,6486.0
50.359350672,5982.0
50.376061941,5748.0
50.392773210,5459.0
50.409484478,5199.0
50.426195747,5279.0
50.442907016,4932.0
50.459618285,4955.0
50.476329554,4744.0
50.493040823,4823.0
50.509752092,4584.0
50.526463361,4733.0
50.543174630,4579.0
50.559885899,4574.0
50.576597168,4582.0
50.593308437,4567.0
50.610019706,4517.0
50.626730975,4300.0
50.643442244,4337.0
50.660153513,4331.0
50.676864782,4201.0
50.693576051,4366.0
50.710287320,4417.0
50.726998589,4254.0
50.743709858,4218.0
50.760421127,4225.0
50.777132396,4177.0
50.793843665,4099.0
50.810554934,4040.0
50.827266203,4051.0
50.843977472,4039.0
50.860688741,4225.0
50.877400010,4069.0
50.894111279,4031.0
50.910822548,4068.0
50.927533817,4104.0
50.944245086,4165.0
50.960956355,4000.0
50.977667624,4023.0
50.994378893,3911.0
51.011090162,3994.0
51.027801431,4049.0
51.044512700,4070.0
51.061223969,3995.0
51.077935238,4036.0
51.094646507,3990.0
51.111357776,4080.0
51.128069045,3963.0
51.144780314,4017.0
51.161491583,4116.0
51.178202852,4035.0
51.194914121,3924.0
51.211625390,3982.0
51.228336658,4010.0
51.245047927,3962.0
51.261759196,4060.0
51.278470465,3831.0
51.295181734,4046.0
51.311893003,4059.0
51.328604272,3881.0
51.345315541,3997.0
51.362026810,4040.0
51.378738079,3943.0
51.395449348,3893.0
51.412160617,3894.0
51.428871886,3904.0
51.445583155,4064.0
51.462294424,3813.0
51.479005693,3881.0
51.495716962,3846.0
51.512428231,3887.0
51.529139500,3961.0
51.545850769,3826.0
51.562562038,3939.0
51.579273307,4068.0
51.595984576,3847.0
51.612695845,3832.0
51.629407114,3944.0
51.646118383,3892.0
51.662829652,3899.0
51.679540921,3917.0
51.696252190,3809.0
51.712963459,3896.0
51.729674728,3771.0
51.746385997,3859.0
51.763097266,3791.0
51.779808535,4011.0
51.796519804,3925.0
51.813231073,3925.0
51.829942342,3916.0
51.846653611,3781.0
51.863364880,3908.0
51.880076149,3877.0
51.896787418,4035.0
51.913498687,3938.0
51.930209956,3910.0
51.946921225,3905.0
51.963632494,3947.0
51.980343763,3958.0
51.997055032,3883.0
52.013766301,3810.0
52.030477569,3917.0
52.047188838,3996.0
52.063900107,3971.0
52.080611376,3913.0
52.097322645,4129.0
52.114033914,3924.0
52.130745183,3890.0
52.147456452,4003.0
52.164167721,4024.0
52.180878990,3953.0
52.197590259,3929.0
52.214301528,4002.0
52.231012797,4086.0
52.247724066,4032.0
52.264435335,3911.0
52.281146604,4029.0
52.297857873,4023.0
52.314569142,3992.0
52.331280411,3971.0
52.347991680,4014.0
52.364702949,3901.0
52.381414218,3904.0
52.398125487,3818.0
52.414836756,3938.0
52.431548025,3791.0
52.448259294,3837.0
52.464970563,3952.0
52.481681832,3919.0
52.498393101,4036.0
52.515104370,3860.0
52.531815639,3876.0
52.548526908,3914.0
52.565238177,3959.0
52.581949446,3839.0
52.598660715,3795.0
52.615371984,3866.0
52.632083253,3944.0
52.648794522,3888.0
52.665505791,3863.0
52.682217060,3707.0
52.698928329,3790.0
52.715639598,3831.0
52.732350867,3908.0
52.749062136,3784.0
52.765773405,3910.0
52.782484674,3910.0
52.799195943,3892.0
52.815907212,3970.0
52.832618480,3777.0
52.849329749,3738.0
52.866041018,3889.0
52.882752287,3728.0
52.899463556,3773.0
52.916174825,3835.0
52.932886094,3674.0
52.949597363,3893.0
52.966308632,3882.0
52.983019901,3811.0
52.999731170,3968.0
53.016442439,3811.0
53.033153708,3886.0
53.049864977,3762.0
53.066576246,3790.0
53.083287515,3818.0
53.099998784,3935.0
53.116710053,3851.0
53.133421322,3851.0
53.150132591,3837.0
53.166843860,3820.0
53.183555129,3816.0
53.200266398,3803.0
53.216977667,3829.0
53.233688936,3834.0
53.250400205,3743.0
53.267111474,3696.0
53.283822743,3842.0
53.300534012,3804.0
53.317245281,3871.0
53.333956550,3712.0
53.350667819,3921.0
53.367379088,3721.0
53.384090357,3729.0
53.400801626,3851.0
53.417512895,3767.0
53.434224164,3742.0
53.450935433,3766.0
53.467646702,3737.0
53.484357971,3838.0
53.501069240,3690.0
53.517780509,3767.0
53.534491778,3846.0
53.551203047,3877.0
53.567914316,3756.0
53.584625585,3809.0
53.601336854,3788.0
53.618048123,3766.0
53.634759391,3813.0
53.651470660,3807.0
53.668181929,3832.0
53.684893198,3734.0
53.701604467,3792.0
53.718315736,3826.0
53.735027005,3767.0
53.751738274,3768.0
53.768449543,3766.0
53.785160812,3776.0
53.801872081,3788.0
53.818583350,3868.0
53.835294619,3880.0
53.852005888,3763.0
53.868717157,3719.0
53.885428426,3879.0
53.902139695,3791.0
53.918850964,3806.0
53.935562233,3809.0
53.952273502,3790.0
53.968984771,3937.0
53.985696040,3861.0
54.002407309,3884.0
54.019118578,3898.0
54.035829847,3848.0
54.052541116,3868.0
54.069252385,3879.0
54.085963654,3802.0
54.102674923,3767.0
54.119386192,3745.0
54.136097461,3668.0
54.152808730,3849.0
54.169519999,3767.0
54.186231268,3835.0
54.202942537,3876.0
54.219653806,3666.0
54.236365075,3907.0
54.253076344,3754.0
54.269787613,3763.0
54.286498882,3822.0
54.303210151,3896.0
54.319921420,4032.0
54.336632689,3942.0
54.353343958,4023.0
54.370055227,4057.0
54.386766496,3931.0
54.403477765,3851.0
54.420189034,3935.0
54.436900303,3786.0
54.453611571,3789.0
54.470322840,4023.0
54.487034109,3991.0
54.503745378,3802.0
54.520456647,3893.0
54.537167916,3885.0
54.553879185,3784.0
54.570590454,3840.0
54.587301723,3769.0
54.604012992,3766.0
54.620724261,3826.0
54.637435530,3788.0
54.654146799,3817.0
54.670858068,3768.0
54.687569337,3801.0
54.704280606,3833.0
54.720991875,3777.0
54.737703144,3762.0
54.754414413,3708.0
54.771125682,3799.0
54.787836951,3883.0
54.804548220,3842.0
54.821259489,3709.0
54.837970758,3743.0
54.854682027,3833.0
54.871393296,3870.0
54.888104565,3852.0
54.904815834,3829.0
54.921527103,3766.0
54.938238372,3812.0
54.954949641,3808.0
54.971660910,3751.0
54.988372179,3763.0
55.005083448,3828.0
55.021794717,3767.0
55.038505986,3851.0
55.055217255,3777.0
55.071928524,3764.0
55.088639793,3919.0
55.105351062,3807.0
55.122062331,3780.0
55.138773600,3755.0
55.155484869,3945.0
55.172196138,3796.0
55.188907407,3880.0
55.205618676,3778.0
55.222329945,3803.0
55.239041214,3673.0
55.255752482,3904.0
55.272463751,3818.0
55.289175020,3737.0
55.305886289,3697.0
55.322597558,3727.0
55.339308827,3730.0
55.356020096,3766.0
55.372731365,3816.0
55.389442634,3923.0
55.406153903,3728.0
55.422865172,3650.0
55.439576441,3816.0
55.456287710,3689.0
55.472998979,3730.0
55.489710248,3697.0
55.506421517,3848.0
55.523132786,3707.0
55.539844055,3803.0
55.556555324,3858.0
55.573266593,3828.0
55.589977862,3890.0
55.606689131,3795.0
55.623400400,3802.0
55.640111669,3798.0
55.656822938,3818.0
55.673534207,3775.0
55.690245476,3675.0
55.706956745,3715.0
55.723668014,3726.0
55.740379283,3748.0
55.757090552,3717.0
55.773801821,3782.0
55.790513090,3910.0
55.807224359,3736.0
55.823935628,3798.0
55.840646897,3852.0
55.857358166,3812.0
55.874069435,3856.0
55.890780704,3797.0
55.907491973,3855.0
55.924203242,3707.0
55.940914511,3706.0
55.957625780,3850.0
55.974337049,3785.0
55.991048318,3736.0
56.007759587,3912.0
56.024470856,3790.0
56.041182125,3735.0
56.057893393,3850.0
56.074604662,3730.0
56.091315931,3781.0
56.108027200,3722.0
56.124738469,3682.0
56.141449738,3758.0
56.158161007,3818.0
56.174872276,3899.0
56.191583545,3799.0
56.208294814,3709.0
56.225006083,3854.0
56.241717352,3910.0
56.258428621,3762.0
56.275139890,3742.0
56.291851159,3799.0
56.308562428,3752.0
56.325273697,3795.0
56.341984966,3722.0
56.358696235,3734.0
56.375407504,3815.0
56.392118773,3766.0
56.408830042,3745.0
56.425541311,3898.0
56.442252580,3798.0
56.458963849,3770.0
56.475675118,3777.0
56.492386387,3755.0
56.509097656,3797.0
56.525808925,3828.0
56.542520194,3748.0
56.559231463,3688.0
56.575942732,3810.0
56.592654001,3773.0
56.609365270,3806.0
56.626076539,3805.0
56.642787808,3749.0
56.659499077,3851.0
56.676210346,3857.0
56.692921615,3743.0
56.709632884,3805.0
56.726344153,3806.0
56.743055422,3810.0
56.759766691,3697.0
56.776477960,3774.0
56.793189229,3792.0
56.809900498,3757.0
56.826611767,3865.0
56.843323036,3736.0
56.860034304,3771.0
56.876745573,3859.0
56.893456842,3802.0
56.910168111,3880.0
56.926879380,3792.0
56.943590649,3803.0
56.960301918,3814.0
56.977013187,3717.0
56.993724456,3795.0
57.010435725,3757.0
57.027146994,3799.0
57.043858263,3838.0
57.060569532,3828.0
57.077280801,3731.0
57.093992070,3857.0
57.110703339,3787.0
57.127414608,3826.0
57.144125877,3812.0
57.160837146,3792.0
57.177548415,3732.0
57.194259684,3907.0
57.210970953,3662.0
57.227682222,3763.0
57.244393491,3825.0
57.261104760,3787.0
57.277816029,3732.0
57.294527298,3834.0
57.311238567,3678.0
57.327949836,3807.0
57.344661105,3839.0
57.361372374,3703.0
57.378083643,3843.0
57.394794912,3834.0
57.411506181,3891.0
57.428217450,3861.0
57.444928719,3805.0
57.461639988,3740.0
57.478351257,3782.0
57.495062526,3838.0
57.511773795,3775.0
57.528485064,3702.0
57.545196333,3792.0
57.561907602,3863.0
57.578618871,3899.0
57.595330140,3793.0
57.612041409,3838.0
57.628752678,3798.0
57.645463947,3919.0
57.662175216,3751.0
57.678886484,3779.0
57.695597753,3776.0
57.712309022,3921.0
57.729020291,3834.0
57.745731560,3715.0
57.762442829,3783.0
57.779154098,3721.0
57.795865367,3874.0
57.812576636,3831.0
57.829287905,3751.0
57.845999174,3894.0
57.862710443,3825.0
57.879421712,3875.0
57.896132981,3719.0
57.912844250,3841.0
57.929555519,3845.0
57.946266788,3851.0
57.962978057,3861.0
57.979689326,3994.0
57.996400595,3803.0
58.013111864,3855.0
58.029823133,3853.0
58.046534402,3803.0
58.063245671,3772.0
58.079956940,3858.0
58.096668209,3786.0
58.113379478,3829.0
58.130090747,3784.0
58.146802016,3833.0
58.163513285,3854.0
58.180224554,3770.0
58.196935823,3902.0
58.213647092,3797.0
58.230358361,3962.0
58.247069630,3757.0
58.263780899,3805.0
58.280492168,3869.0
58.297203437,3801.0
58.313914706,3796.0
58.330625975,3830.0
58.347337244,3745.0
58.364048513,3787.0
58.380759782,3849.0
58.397471051,3718.0
58.414182320,3818.0
58.430893589,3828.0
58.447604858,3770.0
58.464316127,3864.0
58.481027395,3788.0
58.497738664,3809.0
58.514449933,3790.0
58.531161202,3884.0
58.547872471,3729.0
58.564583740,3857.0
58.581295009,3879.0
58.598006278,3845.0
58.614717547,3736.0
58.631428816,3944.0
58.648140085,3735.0
58.664851354,3919.0
58.681562623,3905.0
58.698273892,3882.0
58.714985161,3807.0
58.731696430,3956.0
58.748407699,3845.0
58.765118968,3856.0
58.781830237,3907.0
58.798541506,3911.0
58.815252775,3896.0
58.831964044,3820.0
58.848675313,3777.0
58.865386582,3951.0
58.882097851,3922.0
58.898809120,3819.0
58.915520389,3858.0
58.932231658,3963.0
58.948942927,3840.0
58.965654196,3886.0
58.982365465,3743.0
58.999076734,3757.0
59.015788003,3951.0
59.032499272,3795.0
59.049210541,3788.0
59.065921810,3738.0
59.082633079,3911.0
59.099344348,3840.0
59.116055617,3831.0
59.132766886,3879.0
59.149478155,3823.0
59.166189424,3855.0
59.182900693,4026.0
59.199611962,3899.0
59.216323231,3838.0
59.233034500,3858.0
59.249745769,3909.0
59.266457038,3831.0
59.283168306,3926.0
59.299879575,3812.0
59.316590844,3953.0
59.333302113,3900.0
59.350013382,3881.0
59.366724651,3806.0
59.383435920,3866.0
59.400147189,3910.0
59.416858458,3854.0
59.433569727,3752.0
59.450280996,3992.0
59.466992265,3837.0
59.483703534,3843.0
59.500414803,3751.0
59.517126072,3897.0
59.533837341,3913.0
59.550548610,3840.0
59.567259879,3859.0
59.583971148,3832.0
59.600682417,3925.0
59.617393686,3907.0
59.634104955,3857.0
59.650816224,3911.0
59.667527493,3890.0
59.684238762,3813.0
59.700950031,3852.0
59.717661300,3850.0
59.734372569,3950.0
59.751083838,3814.0
59.767795107,3826.0
59.784506376,3907.0
59.801217645,3937.0
59.817928914,3902.0
59.834640183,3825.0
59.851351452,3808.0
59.868062721,3876.0
59.884773990,3917.0
59.901485259,3933.0
59.918196528,4013.0
59.934907797,4024.0
59.951619066,3766.0
59.968330335,3959.0
59.985041604,3901.0
60.001752873,3942.0
60.018464142,3863.0
60.035175411,3789.0
60.051886680,3926.0
60.068597949,3923.0
60.085309217,3961.0
60.102020486,3990.0
60.118731755,3978.0
60.135443024,3859.0
60.152154293,4048.0
60.168865562,3929.0
60.185576831,3953.0
60.202288100,3920.0
60.218999369,3925.0
60.235710638,3912.0
60.252421907,3912.0
60.269133176,3911.0
60.285844445,4058.0
60.302555714,3869.0
60.319266983,3965.0
60.335978252,3885.0
60.352689521,4021.0
60.369400790,3977.0
60.386112059,3994.0
60.402823328,3991.0
60.419534597,3960.0
60.436245866,3968.0
60.452957135,3948.0
60.469668404,4135.0
60.486379673,4064.0
60.503090942,3991.0
60.519802211,4064.0
60.536513480,3999.0
60.553224749,4091.0
60.569936018,4175.0
60.586647287,4114.0
60.603358556,4011.0
60.620069825,4207.0
60.636781094,3997.0
60.653492363,4185.0
60.670203632,4224.0
60.686914901,4186.0
60.703626170,4249.0
60.720337439,4329.0
60.737048708,4463.0
60.753759977,4425.0
60.770471246,4440.0
60.787182515,4533.0
60.803893784,4720.0
60.820605053,4760.0
60.837316322,4688.0
60.854027591,4996.0
60.870738860,4960.0
60.887450129,5170.0
60.904161397,5350.0
60.920872666,5291.0
60.937583935,5326.0
60.954295204,5563.0
60.971006473,5700.0
60.987717742,5828.0
61.004429011,6042.0
61.021140280,6116.0
61.037851549,6204.0
61.054562818,6309.0
61.071274087,6405.0
61.087985356,6374.0
61.104696625,6331.0
61.121407894,6466.0
61.138119163,6512.0
61.154830432,6429.0
61.171541701,6498.0
61.188252970,6597.0
61.204964239,6524.0
61.221675508,6480.0
61.238386777,6321.0
61.255098046,6281.0
61.271809315,6061.0
61.288520584,6043.0
61.305231853,6051.0
61.321943122,5838.0
61.338654391,5823.0
61.355365660,5509.0
61.372076929,5501.0
61.388788198,5377.0
61.405499467,5296.0
61.422210736,5289.0
61.438922005,5172.0
61.455633274,4894.0
61.472344543,5012.0
61.489055812,4765.0
61.505767081,4804.0
61.522478350,4655.0
61.539189619,4674.0
61.555900888,4467.0
61.572612157,4585.0
61.589323426,4465.0
61.606034695,4451.0
61.622745964,4324.0
61.639457233,4415.0
61.656168502,4246.0
61.672879771,4310.0
61.689591040,4268.0
61.706302308,4186.0
61.723013577,4264.0
61.739724846,4085.0
61.756436115,4110.0
61.773147384,4094.0
61.789858653,4101.0
61.806569922,4137.0
61.823281191,4174.0
61.839992460,3945.0
61.856703729,4037.0
61.873414998,4080.0
61.890126267,4125.0
61.906837536,4102.0
61.923548805,4157.0
61.940260074,3954.0
61.956971343,3989.0
61.973682612,4051.0
61.990393881,4103.0
62.007105150,4013.0
62.023816419,4040.0
62.040527688,3972.0
62.057238957,3912.0
62.073950226,4102.0
62.090661495,3918.0
62.107372764,4065.0
62.124084033,3983.0
62.140795302,3963.0
62.157506571,3864.0
62.174217840,4105.0
62.190929109,3987.0
62.207640378,3903.0
62.224351647,3931.0
62.241062916,3923.0
62.257774185,3949.0
62.274485454,3946.0
62.291196723,4057.0
62.307907992,4025.0
62.324619261,3916.0
62.341330530,3952.0
62.358041799,3968.0
62.374753068,3915.0
62.391464337,3937.0
62.408175606,3869.0
62.424886875,3846.0
62.441598144,4027.0
62.458309413,3929.0
62.475020682,3856.0
62.491731951,3956.0
62.508443219,3830.0
62.525154488,3878.0
62.541865757,3865.0
62.558577026,3973.0
62.575288295,3893.0
62.591999564,3833.0
62.608710833,4011.0
62.625422102,3911.0
62.642133371,3903.0
62.658844640,4058.0
62.675555909,3898.0
62.692267178,3863.0
62.708978447,3911.0
62.725689716,3807.0
62.742400985,3805.0
62.759112254,3938.0
62.775823523,3871.0
62.792534792,3876.0
62.809246061,3868.0
62.825957330,3979.0
62.842668599,3916.0
62.859379868,3904.0
62.876091137,3961.0
62.892802406,3919.0
62.909513675,3923.0
62.926224944,3891.0
62.942936213,3954.0
62.959647482,3965.0
62.976358751,4026.0
62.993070020,3780.0
63.009781289,3819.0
63.026492558,3868.0
63.043203827,3949.0
63.059915096,3892.0
63.076626365,3846.0
63.093337634,3919.0
63.110048903,3952.0
63.126760172,3875.0
63.143471441,3860.0
63.160182710,3969.0
63.176893979,3957.0
63.193605248,3775.0
63.210316517,3865.0
63.227027786,3997.0
63.243739055,3984.0
63.260450324,3827.0
63.277161593,3815.0
63.293872862,3904.0
63.310584130,3976.0
63.327295399,3813.0
63.344006668,3833.0
63.360717937,3913.0
63.377429206,3896.0
63.394140475,3950.0
63.410851744,3852.0
63.427563013,4057.0
63.444274282,3811.0
63.460985551,3849.0
63.477696820,3862.0
63.494408089,3921.0
63.511119358,3897.0
63.527830627,3880.0
63.544541896,3898.0
63.561253165,3831.0
63.577964434,3855.0
63.594675703,4007.0
63.611386972,3859.0
63.628098241,3917.0
63.644809510,4001.0
63.661520779,3891.0
63.678232048,3927.0
63.694943317,3948.0
63.711654586,3884.0
63.728365855,3899.0
63.745077124,3918.0
63.761788393,3958.0
63.778499662,3812.0
63.795210931,3867.0
63.811922200,3976.0
63.828633469,3960.0
63.845344738,3930.0
63.862056007,3903.0
63.878767276,3857.0
63.895478545,3981.0
63.912189814,3814.0
63.928901083,3946.0
63.945612352,3875.0
63.962323621,3849.0
63.979034890,3774.0
63.995746159,3896.0
64.012457428,3905.0
64.029168697,3921.0
64.045879966,3837.0
64.062591235,3882.0
64.079302504,3924.0
64.096013773,3802.0
64.112725041,4023.0
64.129436310,3954.0
64.146147579,4008.0
64.162858848,3959.0
64.179570117,3818.0
64.196281386,3894.0
64.212992655,3904.0
64.229703924,3923.0
64.246415193,3924.0
64.263126462,3986.0
64.279837731,3832.0
64.296549000,3936.0
64.313260269,3974.0
64.329971538,3981.0
64.346682807,3786.0
64.363394076,3814.0
64.380105345,3860.0
64.396816614,3940.0
64.413527883,3874.0
64.430239152,3881.0
64.446950421,3906.0
64.463661690,3946.0
64.480372959,3818.0
64.497084228,3919.0
64.513795497,3886.0
64.530506766,4066.0
64.547218035,3874.0
64.563929304,3903.0
64.580640573,3950.0
64.597351842,3808.0
64.614063111,3908.0
64.630774380,3922.0
64.647485649,3906.0
64.664196918,3843.0
64.680908187,3840.0
64.697619456,3878.0
64.714330725,3994.0
64.731041994,3952.0
64.747753263,4008.0
64.764464532,3778.0
64.781175801,3797.0
64.797887070,3882.0
64.814598339,3993.0
64.831309608,3816.0
64.848020877,3959.0
64.864732146,3859.0
64.881443415,3920.0
64.898154684,3857.0
64.914865953,3853.0
64.931577221,3849.0
64.948288490,3949.0
64.964999759,3907.0
64.981711028,3808.0
64.998422297,3930.0
65.015133566,3998.0
65.031844835,3980.0
65.048556104,3935.0
65.065267373,3932.0
65.081978642,3913.0
65.098689911,3908.0
65.115401180,3870.0
65.132112449,3904.0
65.148823718,3869.0
65.165534987,3981.0
65.182246256,3854.0
65.198957525,3908.0
65.215668794,3918.0
65.232380063,4049.0
65.249091332,3872.0
65.265802601,4004.0
65.282513870,3900.0
65.299225139,3852.0
65.315936408,3903.0
65.332647677,3975.0
65.349358946,3874.0
65.366070215,3825.0
65.382781484,3917.0
65.399492753,3945.0
65.416204022,3908.0
65.432915291,3920.0
65.449626560,3996.0
65.466337829,3932.0
65.483049098,3971.0
65.499760367,3982.0
65.516471636,4103.0
65.533182905,3900.0
65.549894174,3943.0
65.566605443,3946.0
65.583316712,3926.0
65.600027981,4078.0
65.616739250,3999.0
65.633450519,3862.0
65.650161788,3997.0
65.666873057,3955.0
65.683584326,4009.0
65.700295595,4022.0
65.717006864,3856.0
65.733718132,3984.0
65.750429401,4029.0
65.767140670,4030.0
65.783851939,4141.0
65.800563208,3954.0
65.817274477,4068.0
65.833985746,3906.0
65.850697015,4002.0
65.867408284,3957.0
65.884119553,4007.0
65.900830822,3975.0
65.917542091,3992.0
65.934253360,4009.0
65.950964629,3910.0
65.967675898,3969.0
65.984387167,4016.0
66.001098436,4022.0
66.017809705,3962.0
66.034520974,3977.0
66.051232243,4012.0
66.067943512,3899.0
66.084654781,3976.0
66.101366050,3853.0
66.118077319,3949.0
66.134788588,3962.0
66.151499857,3951.0
66.168211126,4022.0
66.184922395,3981.0
66.201633664,3951.0
66.218344933,4018.0
66.235056202,4048.0
66.251767471,3939.0
66.268478740,4036.0
66.285190009,3939.0
66.301901278,3976.0
66.318612547,3844.0
66.335323816,4096.0
66.352035085,4022.0
66.368746354,4021.0
66.385457623,3893.0
66.402168892,3979.0
66.418880161,3940.0
66.435591430,3933.0
66.452302699,3877.0
66.469013968,3962.0
66.485725237,3859.0
66.502436506,3906.0
66.519147775,3944.0
66.535859043,3879.0
66.552570312,3989.0
66.569281581,3933.0
66.585992850,3931.0
66.602704119,3935.0
66.619415388,4007.0
66.636126657,4011.0
66.652837926,3842.0
66.669549195,3903.0
66.686260464,3965.0
66.702971733,3941.0
66.719683002,3913.0
66.736394271,3915.0
66.753105540,3812.0
66.769816809,3822.0
66.786528078,3945.0
66.803239347,3932.0
66.819950616,3880.0
66.836661885,3815.0
66.853373154,3907.0
66.870084423,4039.0
66.886795692,4027.0
66.903506961,3886.0
66.920218230,3927.0
66.936929499,3952.0
66.953640768,3993.0
66.970352037,3966.0
66.987063306,3860.0
67.003774575,3931.0
67.020485844,3848.0
67.037197113,3854.0
67.053908382,3899.0
67.070619651,3906.0
67.087330920,3909.0
67.104042189,4024.0
67.120753458,3998.0
67.137464727,3994.0
67.154175996,3942.0
67.170887265,3914.0
67.187598534,3865.0
67.204309803,3900.0
67.221021072,3935.0
67.237732341,3923.0
67.254443610,3930.0
67.271154879,4106.0
67.287866148,3926.0
67.304577417,3965.0
67.321288686,4093.0
67.337999954,3952.0
67.354711223,3902.0
67.371422492,3851.0
67.388133761,3980.0
67.404845030,3914.0
67.421556299,3916.0
67.438267568,3907.0
67.454978837,3908.0
67.471690106,4075.0
67.488401375,3951.0
67.505112644,4053.0
67.521823913,3978.0
67.538535182,3947.0
67.555246451,3929.0
67.571957720,4039.0
67.588668989,4065.0
67.605380258,4027.0
67.622091527,4142.0
67.638802796,4274.0
67.655514065,4273.0
67.672225334,4154.0
67.688936603,4266.0
67.705647872,4096.0
67.722359141,4129.0
67.739070410,4290.0
67.755781679,4104.0
67.772492948,4169.0
67.789204217,4120.0
67.805915486,4235.0
67.822626755,4172.0
67.839338024,3937.0
67.856049293,4046.0
67.872760562,4134.0
67.889471831,4133.0
67.906183100,4217.0
67.922894369,4179.0
67.939605638,4171.0
67.956316907,3946.0
67.973028176,4010.0
67.989739445,4053.0
68.006450714,3986.0
68.023161983,3967.0
68.039873252,3946.0
68.056584521,3917.0
68.073295790,4025.0
68.090007059,4059.0
68.106718328,3929.0
68.123429597,3979.0
68.140140866,3947.0
68.156852134,3881.0
68.173563403,3898.0
68.190274672,4000.0
68.206985941,3983.0
68.223697210,3958.0
68.240408479,4015.0
68.257119748,3862.0
68.273831017,3963.0
68.290542286,3979.0
68.307253555,3994.0
68.323964824,3852.0
68.340676093,3918.0
68.357387362,3967.0
68.374098631,3894.0
68.390809900,3984.0
68.407521169,4020.0
68.424232438,3779.0
68.440943707,4013.0
68.457654976,3943.0
68.474366245,3895.0
68.491077514,3933.0
68.507788783,3901.0
68.524500052,4074.0
68.541211321,3941.0
68.557922590,3906.0
68.574633859,4024.0
68.591345128,3941.0
68.608056397,3860.0
68.624767666,3832.0
68.641478935,4013.0
68.658190204,3978.0
68.674901473,3975.0
68.691612742,3935.0
68.708324011,3996.0
68.725035280,3899.0
68.741746549,4017.0
68.758457818,3930.0
68.775169087,3956.0
68.791880356,3956.0
68.808591625,4031.0
68.825302894,3992.0
68.842014163,3892.0
68.858725432,3969.0
68.875436701,4074.0
68.892147970,3965.0
68.908859239,4017.0
68.925570508,3849.0
68.942281777,3986.0
68.958993045,3927.0
68.975704314,3808.0
68.992415583,3984.0
69.009126852,3894.0
69.025838121,3963.0
69.042549390,3951.0
69.059260659,3835.0
69.075971928,4046.0
69.092683197,3963.0
69.109394466,3885.0
69.126105735,3867.0
69.142817004,4022.0
69.159528273,4093.0
69.176239542,3939.0
69.192950811,4003.0
69.209662080,3981.0
69.226373349,4063.0
69.243084618,3930.0
69.259795887,3977.0
69.276507156,4042.0
69.293218425,3909.0
69.309929694,3886.0
69.326640963,3949.0
69.343352232,4072.0
69.360063501,3980.0
69.376774770,4023.0
69.393486039,3849.0
69.410197308,3903.0
69.426908577,3973.0
69.443619846,3917.0
69.460331115,3961.0
69.477042384,3962.0
69.493753653,4007.0
69.510464922,3884.0
69.527176191,3995.0
69.543887460,3985.0
69.560598729,3964.0
69.577309998,3925.0
69.594021267,3885.0
69.610732536,4174.0
69.627443805,4018.0
69.644155074,4053.0
69.660866343,3883.0
69.677577612,3921.0
69.694288881,4044.0
69.711000150,4043.0
69.727711419,3878.0
69.744422688,4020.0
69.761133956,3911.0
69.777845225,3947.0
69.794556494,4049.0
69.811267763,3967.0
69.827979032,3915.0
69.844690301,3932.0
69.861401570,3925.0
69.878112839,4054.0
69.894824108,3961.0
69.911535377,3914.0
69.928246646,3982.0
69.944957915,4018.0
69.961669184,3966.0
69.978380453,4072.0
69.995091722,3916.0
70.011802991,4040.0
70.028514260,3929.0
70.045225529,3802.0
70.061936798,3978.0
70.078648067,3984.0
70.095359336,3996.0
70.112070605,3933.0
70.128781874,3999.0
70.145493143,3984.0
70.162204412,3877.0
70.178915681,3980.0
70.195626950,4033.0
70.212338219,3971.0
70.229049488,4086.0
70.245760757,3865.0
70.262472026,4040.0
70.279183295,3986.0
70.295894564,4047.0
70.312605833,4001.0
70.329317102,4007.0
70.346028371,3980.0
70.362739640,4131.0
70.379450909,4078.0
70.396162178,3905.0
70.412873447,4040.0
70.429584716,3964.0
70.446295985,3943.0
70.463007254,3930.0
70.479718523,4051.0
70.496429792,4116.0
70.513141061,4113.0
70.529852330,4003.0
70.546563599,3956.0
70.563274867,4163.0
70.579986136,4099.0
70.596697405,4092.0
70.613408674,4118.0
70.630119943,4096.0
70.646831212,4007.0
70.663542481,4125.0
70.680253750,4107.0
70.696965019,4099.0
70.713676288,4107.0
70.730387557,4121.0
70.747098826,4088.0
70.763810095,4045.0
70.780521364,4024.0
70.797232633,4039.0
70.813943902,4032.0
70.830655171,4015.0
70.847366440,4075.0
70.864077709,4143.0
70.880788978,4046.0
70.897500247,4002.0
70.914211516,4002.0
70.930922785,4129.0
70.947634054,4039.0
70.964345323,3985.0
70.981056592,4006.0
70.997767861,4110.0
71.014479130,4100.0
71.031190399,4134.0
71.047901668,4049.0
71.064612937,4129.0
71.081324206,3987.0
71.098035475,3945.0
71.114746744,4018.0
71.131458013,4092.0
71.148169282,4142.0
71.164880551,3963.0
71.181591820,4153.0
71.198303089,4101.0
71.215014358,4155.0
71.231725627,4151.0
71.248436896,4103.0
71.265148165,3948.0
71.281859434,4145.0
71.298570703,4099.0
71.315281972,4098.0
71.331993241,4004.0
71.348704510,3998.0
71.365415779,4109.0
71.382127047,4065.0
71.398838316,4121.0
71.415549585,4196.0
71.432260854,4019.0
71.448972123,4231.0
71.465683392,4074.0
71.482394661,4040.0
71.499105930,4228.0
71.515817199,4084.0
71.532528468,4036.0
71.549239737,4030.0
71.565951006,4088.0
71.582662275,4131.0
71.599373544,4205.0
71.616084813,4023.0
71.632796082,4060.0
71.649507351,4131.0
71.666218620,4115.0
71.682929889,4265.0
71.699641158,4099.0
71.716352427,4198.0
71.733063696,4098.0
71.749774965,4075.0
71.766486234,4227.0
71.783197503,4026.0
71.799908772,4230.0
71.816620041,4147.0
71.833331310,4102.0
71.850042579,4153.0
71.866753848,4184.0
71.883465117,4016.0
71.900176386,4166.0
71.916887655,4218.0
71.933598924,4193.0
71.950310193,4151.0
71.967021462,4194.0
71.983732731,4005.0
72.000444000,4137.0
72.017155269,4153.0
72.033866538,4155.0
72.050577807,4214.0
72.067289076,4219.0
72.084000345,4242.0
72.100711614,4208.0
72.117422883,4065.0
72.134134152,4177.0
72.150845421,4078.0
72.167556690,4140.0
72.184267958,4280.0
72.200979227,4133.0
72.217690496,4223.0
72.234401765,4133.0
72.251113034,4311.0
72.267824303,4233.0
72.284535572,4244.0
72.301246841,4146.0
72.317958110,4248.0
72.334669379,4238.0
72.351380648,4160.0
72.368091917,4292.0
72.384803186,4287.0
72.401514455,4237.0
72.418225724,4298.0
72.434936993,4230.0
72.451648262,4263.0
72.468359531,4198.0
72.485070800,4293.0
72.501782069,4269.0
72.518493338,4386.0
72.535204607,4246.0
72.551915876,4327.0
72.568627145,4434.0
72.585338414,4366.0
72.602049683,4454.0
72.618760952,4308.0
72.635472221,4376.0
72.652183490,4336.0
72.668894759,4377.0
72.685606028,4422.0
72.702317297,4554.0
72.719028566,4427.0
72.735739835,4614.0
72.752451104,4644.0
72.769162373,4588.0
72.785873642,4589.0
72.802584911,4695.0
72.819296180,4581.0
72.836007449,4751.0
72.852718718,4759.0
72.869429987,4862.0
72.886141256,4882.0
72.902852525,4969.0
72.919563794,4801.0
72.936275063,5032.0
72.952986332,5040.0
72.969697601,5176.0
72.986408869,5103.0
73.003120138,5173.0
73.019831407,5477.0
73.036542676,5422.0
73.053253945,5511.0
73.069965214,5648.0
73.086676483,5530.0
73.103387752,5581.0
73.120099021,5630.0
73.136810290,5836.0
73.153521559,5793.0
73.170232828,5851.0
73.186944097,6067.0
73.203655366,5888.0
73.220366635,5908.0
73.237077904,6157.0
73.253789173,6566.0
73.270500442,6411.0
73.287211711,6626.0
73.303922980,7195.0
73.320634249,7936.0
73.337345518,9130.0
73.354056787,11744.0
73.370768056,15526.0
73.387479325,19989.0
73.404190594,22485.0
73.420901863,22551.0
73.437613132,20618.0
73.454324401,18213.0
73.471035670,16307.0
73.487746939,15572.0
73.504458208,15159.0
73.521169477,15280.0
73.537880746,15325.0
73.554592015,15581.0
73.571303284,15661.0
73.588014553,16150.0
73.604725822,16626.0
73.621437091,16431.0
73.638148360,15047.0
73.654859629,13544.0
73.671570898,11952.0
73.688282167,10996.0
73.704993436,10419.0
73.721704705,10282.0
73.738415974,10002.0
73.755127243,9619.0
73.771838512,9161.0
73.788549780,8438.0
73.805261049,7790.0
73.821972318,6999.0
73.838683587,6419.0
73.855394856,5994.0
73.872106125,5517.0
73.888817394,5211.0
73.905528663,5271.0
73.922239932,5177.0
73.938951201,5072.0
73.955662470,4871.0
73.972373739,4843.0
73.989085008,4834.0
74.005796277,4722.0
74.022507546,4720.0
74.039218815,4883.0
74.055930084,4608.0
74.072641353,4746.0
74.089352622,4554.0
74.106063891,4697.0
74.122775160,4584.0
74.139486429,4711.0
74.156197698,4623.0
74.172908967,4511.0
74.189620236,4423.0
74.206331505,4416.0
74.223042774,4560.0
74.239754043,4456.0
74.256465312,4451.0
74.273176581,4472.0
74.289887850,4612.0
74.306599119,4476.0
74.323310388,4557.0
74.340021657,4350.0
74.356732926,4282.0
74.373444195,4397.0
74.390155464,4215.0
74.406866733,4323.0
74.423578002,4187.0
74.440289271,4357.0
74.457000540,4420.0
74.473711809,4367.0
74.490423078,4339.0
74.507134347,4287.0
74.523845616,4323.0
74.540556885,4356.0
74.557268154,4315.0
74.573979423,4274.0
74.590690692,4331.0
74.607401960,4399.0
74.624113229,4326.0
74.640824498,4330.0
74.657535767,4276.0
74.674247036,4371.0
74.690958305,4352.0
74.707669574,4241.0
74.724380843,4309.0
74.741092112,4388.0
74.757803381,4263.0
74.774514650,4343.0
74.791225919,4221.0
74.807937188,4283.0
74.824648457,4366.0
74.841359726,4338.0
74.858070995,4143.0
74.874782264,4244.0
74.891493533,4257.0
74.908204802,4271.0
74.924916071,4362.0
74.941627340,4237.0
74.958338609,4260.0
74.975049878,4297.0
74.991761147,4309.0
75.008472416,4229.0
75.025183685,4367.0
75.041894954,4320.0
75.058606223,4217.0
75.075317492,4232.0
75.092028761,4329.0
75.108740030,4333.0
75.125451299,4241.0
75.142162568,4270.0
75.158873837,4284.0
75.175585106,4261.0
75.192296375,4307.0
75.209007644,4372.0
75.225718913,4273.0
75.242430182,4335.0
75.259141451,4350.0
75.275852720,4205.0
75.292563989,4364.0
75.309275258,4298.0
75.325986527,4189.0
75.342697796,4272.0
75.359409065,4339.0
75.376120334,4218.0
75.392831603,4101.0
75.409542871,4283.0
75.426254140,4226.0
75.442965409,4263.0
75.459676678,4306.0
75.476387947,4343.0
75.493099216,4134.0
75.509810485,4221.0
75.526521754,4279.0
75.543233023,4288.0
75.559944292,4309.0
75.576655561,4288.0
75.593366830,4185.0
75.610078099,4323.0
75.626789368,4376.0
75.643500637,4228.0
75.660211906,4258.0
75.676923175,4198.0
75.693634444,4260.0
75.710345713,4285.0
75.727056982,4263.0
75.743768251,4216.0
75.760479520,4243.0
75.777190789,4330.0
75.793902058,4368.0
75.810613327,4278.0
75.827324596,4255.0
75.844035865,4326.0
75.860747134,4209.0
75.877458403,4125.0
75.894169672,4200.0
75.910880941,4269.0
75.927592210,4189.0
75.944303479,4292.0
75.961014748,4185.0
75.977726017,4255.0
75.994437286,4324.0
76.011148555,4245.0
76.027859824,4210.0
76.044571093,4164.0
76.061282362,4343.0
76.077993631,4208.0
76.094704900,4455.0
76.111416169,4260.0
76.128127438,4350.0
76.144838707,4299.0
76.161549976,4302.0
76.178261245,4302.0
76.194972514,4314.0
76.211683782,4148.0
76.228395051,4331.0
76.245106320,4234.0
76.261817589,4277.0
76.278528858,4176.0
76.295240127,4240.0
76.311951396,4222.0
76.328662665,4289.0
76.345373934,4315.0
76.362085203,4291.0
76.378796472,4332.0
76.395507741,4265.0
76.412219010,4157.0
76.428930279,4303.0
76.445641548,4435.0
76.462352817,4172.0
76.479064086,4153.0
76.495775355,4139.0
76.512486624,4273.0
76.529197893,4175.0
76.545909162,4288.0
76.562620431,4282.0
76.579331700,4298.0
76.596042969,4396.0
76.612754238,4321.0
76.629465507,4253.0
76.646176776,4344.0
76.662888045,4343.0
76.679599314,4191.0
76.696310583,4293.0
76.713021852,4231.0
76.729733121,4290.0
76.746444390,4359.0
76.763155659,4304.0
76.779866928,4377.0
76.796578197,4420.0
76.813289466,4441.0
76.830000735,4359.0
76.846712004,4483.0
76.863423273,4351.0
76.880134542,4392.0
76.896845811,4498.0
76.913557080,4380.0
76.930268349,4351.0
76.946979618,4430.0
76.963690887,4391.0
76.980402156,4451.0
76.997113425,4379.0
77.013824693,4442.0
77.030535962,4509.0
77.047247231,4573.0
77.063958500,4534.0
77.080669769,4450.0
77.097381038,4555.0
77.114092307,4572.0
77.130803576,4487.0
77.147514845,4528.0
77.164226114,4592.0
77.180937383,4747.0
77.197648652,4534.0
77.214359921,4543.0
77.231071190,4569.0
77.247782459,4543.0
77.264493728,4494.0
77.281204997,4548.0
77.297916266,4505.0
77.314627535,4414.0
77.331338804,4366.0
77.348050073,4478.0
77.364761342,4455.0
77.381472611,4337.0
77.398183880,4426.0
77.414895149,4528.0
77.431606418,4522.0
77.448317687,4249.0
77.465028956,4327.0
77.481740225,4400.0
77.498451494,4491.0
77.515162763,4277.0
77.531874032,4397.0
77.548585301,4376.0
77.565296570,4346.0
77.582007839,4443.0
77.598719108,4445.0
77.615430377,4351.0
77.632141646,4328.0
77.648852915,4353.0
77.665564184,4255.0
77.682275453,4449.0
77.698986722,4479.0
77.715697991,4403.0
77.732409260,4378.0
77.749120529,4379.0
77.765831798,4437.0
77.782543067,4297.0
77.799254336,4224.0
77.815965605,4207.0
77.832676873,4175.0
77.849388142,4242.0
77.866099411,4339.0
77.882810680,4338.0
77.899521949,4231.0
77.916233218,4233.0
77.932944487,4282.0
77.949655756,4315.0
77.966367025,4327.0
77.983078294,4304.0
77.999789563,4410.0
78.016500832,4306.0
78.033212101,4282.0
78.049923370,4187.0
78.066634639,4303.0
78.083345908,4242.0
78.100057177,4256.0
78.116768446,4384.0
78.133479715,4299.0
78.150190984,4264.0
78.166902253,4320.0
78.183613522,4269.0
78.200324791,4264.0
78.217036060,4361.0
78.233747329,4299.0
78.250458598,4273.0
78.267169867,4315.0
78.283881136,4271.0
78.300592405,4295.0
78.317303674,4393.0
78.334014943,4337.0
78.350726212,4286.0
78.367437481,4188.0
78.384148750,4228.0
78.400860019,4344.0
78.417571288,4305.0
78.434282557,4307.0
78.450993826,4374.0
78.467705095,4407.0
78.484416364,4234.0
78.501127633,4154.0
78.517838902,4144.0
78.534550171,4333.0
78.551261440,4315.0
78.567972709,4264.0
78.584683978,4231.0
78.601395247,4225.0
78.618106516,4434.0
78.634817784,4318.0
78.651529053,4387.0
78.668240322,4296.0
78.684951591,4232.0
78.701662860,4338.0
78.718374129,4251.0
78.735085398,4347.0
78.751796667,4351.0
78.768507936,4369.0
78.785219205,4303.0
78.801930474,4392.0
78.818641743,4376.0
78.835353012,4359.0
78.852064281,4354.0
78.868775550,4357.0
78.885486819,4321.0
78.902198088,4305.0
78.918909357,4355.0
78.935620626,4355.0
78.952331895,4335.0
78.969043164,4424.0
78.985754433,4343.0
79.002465702,4293.0
79.019176971,4265.0
79.035888240,4374.0
79.052599509,4298.0
79.069310778,4381.0
79.086022047,4279.0
79.102733316,4211.0
79.119444585,4258.0
79.136155854,4270.0
79.152867123,4369.0
79.169578392,4249.0
79.186289661,4346.0
79.203000930,4131.0
79.219712199,4382.0
79.236423468,4389.0
79.253134737,4199.0
79.269846006,4431.0
79.286557275,4379.0
79.303268544,4336.0
79.319979813,4329.0
79.336691082,4304.0
79.353402351,4292.0
79.370113620,4241.0
79.386824889,4344.0
79.403536158,4333.0
79.420247427,4307.0
79.436958695,4384.0
79.453669964,4361.0
79.470381233,4254.0
79.487092502,4408.0
79.503803771,4246.0
79.520515040,4227.0
79.537226309,4241.0
79.553937578,4384.0
79.570648847,4431.0
79.587360116,4268.0
79.604071385,4308.0
79.620782654,4282.0
79.637493923,4262.0
79.654205192,4352.0
79.670916461,4205.0
79.687627730,4304.0
79.704338999,4154.0
79.721050268,4256.0
79.737761537,4230.0
79.754472806,4343.0
79.771184075,4379.0
79.787895344,4308.0
79.804606613,4250.0
79.821317882,4329.0
79.838029151,4215.0
79.854740420,4291.0
79.871451689,4320.0
79.888162958,4388.0
79.904874227,4208.0
79.921585496,4315.0
79.938296765,4314.0
79.955008034,4311.0
79.971719303,4244.0
79.988430572,4440.0
80.005141841,4361.0
80.021853110,4313.0
80.038564379,4428.0
80.055275648,4362.0
80.071986917,4372.0
80.088698186,4325.0
80.105409455,4329.0
80.122120724,4437.0
80.138831993,4340.0
80.155543262,4409.0
80.172254531,4311.0
80.188965800,4344.0
80.205677069,4343.0
80.222388338,4401.0
80.239099606,4378.0
80.255810875,4375.0
80.272522144,4297.0
80.289233413,4426.0
80.305944682,4264.0
80.322655951,4540.0
80.339367220,4343.0
80.356078489,4398.0
80.372789758,4382.0
80.389501027,4350.0
80.406212296,4274.0
80.422923565,4334.0
80.439634834,4440.0
80.456346103,4432.0
80.473057372,4369.0
80.489768641,4329.0
80.506479910,4405.0
80.523191179,4464.0
80.539902448,4336.0
80.556613717,4317.0
80.573324986,4277.0
80.590036255,4334.0
80.606747524,4485.0
80.623458793,4376.0
80.640170062,4256.0
80.656881331,4373.0
80.673592600,4259.0
80.690303869,4331.0
80.707015138,4344.0
80.723726407,4386.0
80.740437676,4356.0
80.757148945,4337.0
80.773860214,4326.0
80.790571483,4396.0
80.807282752,4413.0
80.823994021,4322.0
80.840705290,4279.0
80.857416559,4315.0
80.874127828,4363.0
80.890839097,4529.0
80.907550366,4466.0
80.924261635,4501.0
80.940972904,4312.0
80.957684173,4199.0
80.974395442,4342.0
80.991106711,4377.0
81.007817980,4394.0
81.024529249,4463.0
81.041240518,4380.0
81.057951786,4345.0
81.074663055,4282.0
81.091374324,4362.0
81.108085593,4321.0
81.124796862,4245.0
81.141508131,4338.0
81.158219400,4296.0
81.174930669,4349.0
81.191641938,4458.0
81.208353207,4351.0
81.225064476,4357.0
81.241775745,4473.0
81.258487014,4439.0
81.275198283,4334.0
81.291909552,4461.0
81.308620821,4297.0
81.325332090,4260.0
81.342043359,4377.0
81.358754628,4445.0
81.375465897,4382.0
81.392177166,4481.0
81.408888435,4390.0
81.425599704,4392.0
81.442310973,4357.0
81.459022242,4273.0
81.475733511,4409.0
81.492444780,4280.0
81.509156049,4520.0
81.525867318,4450.0
81.542578587,4569.0
81.559289856,4439.0
81.576001125,4598.0
81.592712394,4607.0
81.609423663,4557.0
81.626134932,4521.0
81.642846201,4496.0
81.659557470,4523.0
81.676268739,4566.0
81.692980008,4490.0
81.709691277,4401.0
81.726402546,4437.0
81.743113815,4429.0
81.759825084,4601.0
81.776536353,4463.0
81.793247622,4621.0
81.809958891,4418.0
81.826670160,4447.0
81.843381429,4654.0
81.860092697,4274.0
81.876803966,4476.0
81.893515235,4484.0
81.910226504,4404.0
81.926937773,4391.0
81.943649042,4374.0
81.960360311,4481.0
81.977071580,4382.0
81.993782849,4311.0
82.010494118,4385.0
82.027205387,4383.0
82.043916656,4460.0
82.060627925,4466.0
82.077339194,4389.0
82.094050463,4468.0
82.110761732,4343.0
82.127473001,4438.0
82.144184270,4361.0
82.160895539,4412.0
82.177606808,4561.0
82.194318077,4492.0
82.211029346,4413.0
82.227740615,4548.0
82.244451884,4425.0
82.261163153,4412.0
82.277874422,4441.0
82.294585691,4399.0
82.311296960,4356.0
82.328008229,4383.0
82.344719498,4361.0
82.361430767,4396.0
82.378142036,4429.0
82.394853305,4367.0
82.411564574,4343.0
82.428275843,4453.0
82.444987112,4308.0
82.461698381,4479.0
82.478409650,4605.0
82.495120919,4604.0
82.511832188,4408.0
82.528543457,4388.0
82.545254726,4341.0
82.561965995,4440.0
82.578677264,4421.0
82.595388533,4498.0
82.612099802,4363.0
82.628811071,4422.0
82.645522340,4395.0
82.662233608,4415.0
82.678944877,4431.0
82.695656146,4454.0
82.712367415,4557.0
82.729078684,4411.0
82.745789953,4497.0
82.762501222,4326.0
82.779212491,4491.0
82.795923760,4434.0
82.812635029,4343.0
82.829346298,4463.0
82.846057567,4426.0
82.862768836,4464.0
82.879480105,4545.0
82.896191374,4424.0
82.912902643,4430.0
82.929613912,4477.0
82.946325181,4497.0
82.963036450,4324.0
82.979747719,4436.0
82.996458988,4454.0
83.013170257,4562.0
83.029881526,4444.0
83.046592795,4458.0
83.063304064,4409.0
83.080015333,4467.0
83.096726602,4387.0
83.113437871,4414.0
83.130149140,4524.0
83.146860409,4479.0
83.163571678,4427.0
83.180282947,4600.0
83.196994216,4457.0
83.213705485,4554.0
83.230416754,4570.0
83.247128023,4389.0
83.263839292,4464.0
83.280550561,4509.0
83.297261830,4330.0
83.313973099,4410.0
83.330684368,4405.0
83.347395637,4490.0
83.364106906,4558.0
83.380818175,4371.0
83.397529444,4425.0
83.414240713,4534.0
83.430951982,4463.0
83.447663251,4435.0
83.464374519,4361.0
83.481085788,4449.0
83.497797057,4459.0
83.514508326,4547.0
83.531219595,4417.0
83.547930864,4425.0
83.564642133,4443.0
83.581353402,4495.0
83.598064671,4362.0
83.614775940,4405.0
83.631487209,4266.0
83.648198478,4407.0
83.664909747,4457.0
83.681621016,4421.0
83.698332285,4496.0
83.715043554,4421.0
83.731754823,4518.0
83.748466092,4599.0
83.765177361,4400.0
83.781888630,4339.0
83.798599899,4409.0
83.815311168,4417.0
83.832022437,4443.0
83.848733706,4487.0
83.865444975,4442.0
83.882156244,4483.0
83.898867513,4466.0
83.915578782,4435.0
83.932290051,4423.0
83.949001320,4450.0
83.965712589,4495.0
83.982423858,4296.0
83.999135127,4423.0
84.015846396,4472.0
84.032557665,4362.0
84.049268934,4553.0
84.065980203,4506.0
84.082691472,4453.0
84.099402741,4554.0
84.116114010,4315.0
84.132825279,4281.0
84.149536548,4530.0
84.166247817,4673.0
84.182959086,4354.0
84.199670355,4507.0
84.216381624,4481.0
84.233092893,4546.0
84.249804162,4517.0
84.266515431,4345.0
84.283226699,4478.0
84.299937968,4521.0
84.316649237,4529.0
84.333360506,4464.0
84.350071775,4401.0
84.366783044,4417.0
84.383494313,4455.0
84.400205582,4402.0
84.416916851,4490.0
84.433628120,4533.0
84.450339389,4366.0
84.467050658,4519.0
84.483761927,4479.0
84.500473196,4572.0
84.517184465,4464.0
84.533895734,4535.0
84.550607003,4349.0
84.567318272,4368.0
84.584029541,4392.0
84.600740810,4410.0
84.617452079,4495.0
84.634163348,4463.0
84.650874617,4511.0
84.667585886,4384.0
84.684297155,4478.0
84.701008424,4451.0
84.717719693,4609.0
84.734430962,4456.0
84.751142231,4398.0
84.767853500,4459.0
84.784564769,4545.0
84.801276038,4401.0
84.817987307,4482.0
84.834698576,4574.0
84.851409845,4499.0
84.868121114,4569.0
84.884832383,4580.0
84.901543652,4482.0
84.918254921,4438.0
84.934966190,4416.0
84.951677459,4340.0
84.968388728,4472.0
84.985099997,4439.0
85.001811266,4596.0
85.018522535,4530.0
85.035233804,4434.0
85.051945073,4488.0
85.068656342,4628.0
85.085367610,4397.0
85.102078879,4479.0
85.118790148,4558.0
85.135501417,4486.0
85.152212686,4543.0
85.168923955,4508.0
85.185635224,4538.0
85.202346493,4430.0
85.219057762,4472.0
85.235769031,4481.0
85.252480300,4536.0
85.269191569,4420.0
85.285902838,4555.0
85.302614107,4425.0
85.319325376,4659.0
85.336036645,4410.0
85.352747914,4415.0
85.369459183,4524.0
85.386170452,4454.0
85.402881721,4411.0
85.419592990,4337.0
85.436304259,4409.0
85.453015528,4461.0
85.469726797,4443.0
85.486438066,4434.0
85.503149335,4563.0
85.519860604,4565.0
85.536571873,4714.0
85.553283142,4493.0
85.569994411,4524.0
85.586705680,4676.0
85.603416949,4445.0
85.620128218,4481.0
85.636839487,4338.0
85.653550756,4474.0
85.670262025,4627.0
85.686973294,4643.0
85.703684563,4520.0
85.720395832,4519.0
85.737107101,4651.0
85.753818370,4498.0
85.770529639,4510.0
85.787240908,4443.0
85.803952177,4594.0
85.820663446,4563.0
85.837374715,4447.0
85.854085984,4570.0
85.870797253,4283.0
85.887508521,4471.0
85.904219790,4433.0
85.920931059,4474.0
85.937642328,4560.0
85.954353597,4484.0
85.971064866,4543.0
85.987776135,4589.0
86.004487404,4405.0
86.021198673,4565.0
86.037909942,4591.0
86.054621211,4633.0
86.071332480,4685.0
86.088043749,4478.0
86.104755018,4530.0
86.121466287,4414.0
86.138177556,4505.0
86.154888825,4536.0
86.171600094,4426.0
86.188311363,4368.0
86.205022632,4536.0
86.221733901,4525.0
86.238445170,4585.0
86.255156439,4448.0
86.271867708,4502.0
86.288578977,4457.0
86.305290246,4453.0
86.322001515,4496.0
86.338712784,4459.0
86.355424053,4564.0
86.372135322,4581.0
86.388846591,4493.0
86.405557860,4480.0
86.422269129,4697.0
86.438980398,4507.0
86.455691667,4536.0
86.472402936,4426.0
86.489114205,4506.0
86.505825474,4488.0
86.522536743,4491.0
86.539248012,4537.0
86.555959281,4495.0
86.572670550,4455.0
86.589381819,4551.0
86.606093088,4568.0
86.622804357,4560.0
86.639515626,4543.0
86.656226895,4637.0
86.672938164,4455.0
86.689649432,4557.0
86.706360701,4541.0
86.723071970,4556.0
86.739783239,4428.0
86.756494508,4470.0
86.773205777,4441.0
86.789917046,4592.0
86.806628315,4599.0
86.823339584,4515.0
86.840050853,4571.0
86.856762122,4530.0
86.873473391,4588.0
86.890184660,4531.0
86.906895929,4604.0
86.923607198,4483.0
86.940318467,4618.0
86.957029736,4443.0
86.973741005,4573.0
86.990452274,4448.0
87.007163543,4688.0
87.023874812,4478.0
87.040586081,4574.0
87.057297350,4438.0
87.074008619,4538.0
87.090719888,4464.0
87.107431157,4474.0
87.124142426,4662.0
87.140853695,4619.0
87.157564964,4517.0
87.174276233,4631.0
87.190987502,4570.0
87.207698771,4487.0
87.224410040,4584.0
87.241121309,4519.0
87.257832578,4565.0
87.274543847,4648.0
87.291255116,4506.0
87.307966385,4463.0
87.324677654,4388.0
87.341388923,4453.0
87.358100192,4608.0
87.374811461,4563.0
87.391522730,4478.0
87.408233999,4572.0
87.424945268,4435.0
87.441656537,4671.0
87.458367806,4499.0
87.475079075,4537.0
87.491790344,4398.0
87.508501612,4511.0
87.525212881,4544.0
87.541924150,4592.0
87.558635419,4508.0
87.575346688,4648.0
87.592057957,4632.0
87.608769226,4546.0
87.625480495,4537.0
87.642191764,4568.0
87.658903033,4565.0
87.675614302,4550.0
87.692325571,4522.0
87.709036840,4573.0
87.725748109,4499.0
87.742459378,4593.0
87.759170647,4614.0
87.775881916,4431.0
87.792593185,4618.0
87.809304454,4586.0
87.826015723,4608.0
87.842726992,4458.0
87.859438261,4543.0
87.876149530,4486.0
87.892860799,4562.0
87.909572068,4464.0
87.926283337,4664.0
87.942994606,4635.0
87.959705875,4547.0
87.976417144,4476.0
87.993128413,4478.0
88.009839682,4554.0
88.026550951,4689.0
88.043262220,4638.0
88.059973489,4496.0
88.076684758,4564.0
88.093396027,4548.0
88.110107296,4547.0
88.126818565,4602.0
88.143529834,4571.0
88.160241103,4611.0
88.176952372,4535.0
88.193663641,4501.0
88.210374910,4568.0
88.227086179,4519.0
88.243797448,4713.0
88.260508717,4515.0
88.277219986,4490.0
88.293931255,4623.0
88.310642523,4611.0
88.327353792,4521.0
88.344065061,4550.0
88.360776330,4492.0
88.377487599,4507.0
88.394198868,4681.0
88.410910137,4548.0
88.427621406,4589.0
88.444332675,4601.0
88.461043944,4571.0
88.477755213,4590.0
88.494466482,4544.0
88.511177751,4631.0
88.527889020,4660.0
88.544600289,4626.0
88.561311558,4668.0
88.578022827,4701.0
88.594734096,4551.0
88.611445365,4677.0
88.628156634,4664.0
88.644867903,4562.0
88.661579172,4519.0
88.678290441,4634.0
88.695001710,4665.0
88.711712979,4672.0
88.728424248,4564.0
88.745135517,4751.0
88.761846786,4652.0
88.778558055,4713.0
88.795269324,4672.0
88.811980593,4713.0
88.828691862,4706.0
88.845403131,4694.0
88.862114400,4842.0
88.878825669,4809.0
88.895536938,4837.0
88.912248207,4921.0
88.928959476,5023.0
88.945670745,5271.0
88.962382014,5601.0
88.979093283,5978.0
88.995804552,6744.0
89.012515821,7335.0
89.029227090,7566.0
89.045938359,7755.0
89.062649628,7846.0
89.079360897,7796.0
89.096072166,7774.0
89.112783434,7808.0
89.129494703,7974.0
89.146205972,8264.0
89.162917241,8344.0
89.179628510,8397.0
89.196339779,8075.0
89.213051048,8229.0
89.229762317,7949.0
89.246473586,7403.0
89.263184855,7470.0
89.279896124,7434.0
89.296607393,7631.0
89.313318662,7460.0
89.330029931,7428.0
89.346741200,7375.0
89.363452469,7056.0
89.380163738,6864.0
89.396875007,6918.0
89.413586276,6905.0
89.430297545,6825.0
89.447008814,7067.0
89.463720083,6856.0
89.480431352,6696.0
89.497142621,6527.0
89.513853890,6368.0
89.530565159,6017.0
89.547276428,5995.0
89.563987697,5580.0
89.580698966,5686.0
89.597410235,5384.0
89.614121504,5387.0
89.630832773,5183.0
89.647544042,5110.0
89.664255311,5013.0
89.680966580,5040.0
89.697677849,4905.0
89.714389118,4947.0
89.731100387,4820.0
89.747811656,4871.0
89.764522925,4841.0
89.781234194,4717.0
89.797945463,4745.0
89.814656732,4751.0
89.831368001,4697.0
89.848079270,4597.0
89.864790539,4751.0
89.881501808,4691.0
89.898213077,4541.0
89.914924345,4551.0
89.931635614,4741.0
89.948346883,4571.0
89.965058152,4654.0
89.981769421,4572.0
89.998480690,4688.0
90.015191959,4612.0
90.031903228,4705.0
90.048614497,4654.0
90.065325766,4528.0
90.082037035,4617.0
90.098748304,4504.0
90.115459573,4573.0
90.132170842,4643.0
90.148882111,4661.0
90.165593380,4745.0
90.182304649,4625.0
90.199015918,4544.0
90.215727187,4689.0
90.232438456,4711.0
90.249149725,4606.0
90.265860994,4654.0
90.282572263,4566.0
90.299283532,4571.0
90.315994801,4515.0
90.332706070,4480.0
90.349417339,4637.0
90.366128608,4642.0
90.382839877,4522.0
90.399551146,4602.0
90.416262415,4651.0
90.432973684,4535.0
90.449684953,4714.0
90.466396222,4729.0
90.483107491,4596.0
90.499818760,4549.0
90.516530029,4542.0
90.533241298,4493.0
90.549952567,4575.0
90.566663836,4521.0
90.583375105,4705.0
90.600086374,4735.0
90.616797643,4569.0
90.633508912,4565.0
90.650220181,4612.0
90.666931450,4519.0
90.683642719,4506.0
90.700353988,4592.0
90.717065257,4521.0
90.733776525,4611.0
90.750487794,4616.0
90.767199063,4603.0
90.783910332,4593.0
90.800621601,4572.0
90.817332870,4624.0
90.834044139,4491.0
90.850755408,4552.0
90.867466677,4697.0
90.884177946,4687.0
90.900889215,4602.0
90.917600484,4505.0
90.934311753,4540.0
90.951023022,4599.0
90.967734291,4636.0
90.984445560,4552.0
91.001156829,4609.0
91.017868098,4608.0
91.034579367,4832.0
91.051290636,4706.0
91.068001905,4662.0
91.084713174,4563.0
91.101424443,4683.0
91.118135712,4669.0
91.134846981,4577.0
91.151558250,4623.0
91.168269519,4650.0
91.184980788,4594.0
91.201692057,4613.0
91.218403326,4669.0
91.235114595,4565.0
91.251825864,4576.0
91.268537133,4616.0
91.285248402,4675.0
91.301959671,4645.0
91.318670940,4609.0
91.335382209,4641.0
91.352093478,4743.0
91.368804747,4606.0
91.385516016,4654.0
91.402227285,4492.0
91.418938554,4642.0
91.435649823,4544.0
91.452361092,4702.0
91.469072361,4735.0
91.485783630,4617.0
91.502494899,4710.0
91.519206168,4600.0
91.535917436,4524.0
91.552628705,4605.0
91.569339974,4666.0
91.586051243,4575.0
91.602762512,4629.0
91.619473781,4740.0
91.636185050,4648.0
91.652896319,4678.0
91.669607588,4507.0
91.686318857,4666.0
91.703030126,4670.0
91.719741395,4660.0
91.736452664,4562.0
91.753163933,4668.0
91.769875202,4723.0
91.786586471,4645.0
91.803297740,4700.0
91.820009009,4685.0
91.836720278,4692.0
91.853431547,4559.0
91.870142816,4741.0
91.886854085,4625.0
91.903565354,4665.0
91.920276623,4680.0
91.936987892,4669.0
91.953699161,4495.0
91.970410430,4646.0
91.987121699,4650.0
92.003832968,4830.0
92.020544237,4648.0
92.037255506,4737.0
92.053966775,4536.0
92.070678044,4643.0
92.087389313,4718.0
92.104100582,4773.0
92.120811851,4585.0
92.137523120,4604.0
92.154234389,4545.0
92.170945658,4616.0
92.187656927,4545.0
92.204368196,4664.0
92.221079465,4625.0
92.237790734,4727.0
92.254502003,4630.0
92.271213272,4787.0
92.287924541,4553.0
92.304635810,4545.0
92.321347079,4525.0
92.338058347,4552.0
92.354769616,4742.0
92.371480885,4663.0
92.388192154,4628.0
92.404903423,4674.0
92.421614692,4594.0
92.438325961,4610.0
92.455037230,4588.0
92.471748499,4642.0
92.488459768,4665.0
92.505171037,4617.0
92.521882306,4608.0
92.538593575,4714.0
92.555304844,4588.0
92.572016113,4585.0
92.588727382,4395.0
92.605438651,4669.0
92.622149920,4649.0
92.638861189,4620.0
92.655572458,4615.0
92.672283727,4625.0
92.688994996,4582.0
92.705706265,4554.0
92.722417534,4664.0
92.739128803,4607.0
92.755840072,4430.0
92.772551341,4688.0
92.789262610,4588.0
92.805973879,4637.0
92.822685148,4597.0
92.839396417,4403.0
92.856107686,4544.0
92.872818955,4635.0
92.889530224,4659.0
92.906241493,4691.0
92.922952762,4583.0
92.939664031,4719.0
92.956375300,4653.0
92.973086569,4613.0
92.989797838,4592.0
93.006509107,4540.0
93.023220376,4634.0
93.039931645,4540.0
93.056642914,4698.0
93.073354183,4536.0
93.090065452,4489.0
93.106776721,4665.0
93.123487990,4553.0
93.140199258,4613.0
93.156910527,4613.0
93.173621796,4557.0
93.190333065,4596.0
93.207044334,4558.0
93.223755603,4622.0
93.240466872,4496.0
93.257178141,4642.0
93.273889410,4772.0
93.290600679,4573.0
93.307311948,4623.0
93.324023217,4613.0
93.340734486,4723.0
93.357445755,4536.0
93.374157024,4805.0
93.390868293,4650.0
93.407579562,4629.0
93.424290831,4576.0
93.441002100,4653.0
93.457713369,4626.0
93.474424638,4509.0
93.491135907,4709.0
93.507847176,4544.0
93.524558445,4646.0
93.541269714,4635.0
93.557980983,4736.0
93.574692252,4647.0
93.591403521,4673.0
93.608114790,4750.0
93.624826059,4603.0
93.641537328,4593.0
93.658248597,4612.0
93.674959866,4635.0
93.691671135,4685.0
93.708382404,4679.0
93.725093673,4666.0
93.741804942,4810.0
93.758516211,4743.0
93.775227480,4809.0
93.791938749,4706.0
93.808650018,4760.0
93.825361287,4701.0
93.842072556,4723.0
93.858783825,4793.0
93.875495094,4808.0
93.892206363,4736.0
93.908917632,4999.0
93.925628901,4713.0
93.942340170,4773.0
93.959051438,4838.0
93.975762707,4917.0
93.992473976,4938.0
94.009185245,4910.0
94.025896514,4994.0
94.042607783,5277.0
94.059319052,5337.0
94.076030321,5633.0
94.092741590,5920.0
94.109452859,6642.0
94.126164128,7530.0
94.142875397,8860.0
94.159586666,10234.0
94.176297935,10821.0
94.193009204,11053.0
94.209720473,10723.0
94.226431742,9996.0
94.243143011,9431.0
94.259854280,8857.0
94.276565549,8832.0
94.293276818,8669.0
94.309988087,8635.0
94.326699356,8417.0
94.343410625,8140.0
94.360121894,7671.0
94.376833163,7231.0
94.393544432,6818.0
94.410255701,6762.0
94.426966970,6593.0
94.443678239,7092.0
94.460389508,7660.0
94.477100777,7937.0
94.493812046,8190.0
94.510523315,8132.0
94.527234584,7647.0
94.543945853,7371.0
94.560657122,7163.0
94.577368391,6853.0
94.594079660,6917.0
94.610790929,6657.0
94.627502198,6631.0
94.644213467,6348.0
94.660924736,6324.0
94.677636005,6126.0
94.694347274,5656.0
94.711058543,5285.0
94.727769812,5239.0
94.744481081,5195.0
94.761192349,4979.0
94.777903618,4821.0
94.794614887,4942.0
94.811326156,4833.0
94.828037425,4689.0
94.844748694,4711.0
94.861459963,4602.0
94.878171232,4714.0
94.894882501,4709.0
94.911593770,4742.0
94.928305039,4653.0
94.945016308,4693.0
94.961727577,4802.0
94.978438846,4602.0
94.995150115,4629.0
95.011861384,4721.0
95.028572653,4654.0
95.045283922,4682.0
95.061995191,4495.0
95.078706460,4609.0
95.095417729,4555.0
95.112128998,4651.0
95.128840267,4638.0
95.145551536,4622.0
95.162262805,4541.0
95.178974074,4600.0
95.195685343,4662.0
95.212396612,4638.0
95.229107881,4659.0
95.245819150,4638.0
95.262530419,4690.0
95.279241688,4624.0
95.295952957,4718.0
95.312664226,4576.0
95.329375495,4596.0
95.346086764,4568.0
95.362798033,4494.0
95.379509302,4525.0
95.396220571,4591.0
95.412931840,4695.0
95.429643109,4704.0
95.446354378,4606.0
95.463065647,4588.0
95.479776916,4505.0
95.496488185,4519.0
95.513199454,4653.0
95.529910723,4570.0
95.546621992,4624.0
95.563333260,4582.0
95.580044529,4573.0
95.596755798,4666.0
95.613467067,4644.0
95.630178336,4680.0
95.646889605,4602.0
95.663600874,4638.0
95.680312143,4709.0
95.697023412,4603.0
95.713734681,4667.0
95.730445950,4626.0
95.747157219,4695.0
95.763868488,4563.0
95.780579757,4633.0
95.797291026,4697.0
95.814002295,4605.0
95.830713564,4553.0
95.847424833,4654.0
95.864136102,4623.0
95.880847371,4560.0
95.897558640,4499.0
95.914269909,4540.0
95.930981178,4523.0
95.947692447,4728.0
95.964403716,4735.0
95.981114985,4634.0
95.997826254,4562.0
96.014537523,4593.0
96.031248792,4676.0
96.047960061,4617.0
96.064671330,4569.0
96.081382599,4683.0
96.098093868,4595.0
96.114805137,4555.0
96.131516406,4511.0
96.148227675,4554.0
96.164938944,4491.0
96.181650213,4529.0
96.198361482,4487.0
96.215072751,4611.0
96.231784020,4528.0
96.248495289,4490.0
96.265206558,4754.0
96.281917827,4499.0
96.298629096,4629.0
96.315340365,4561.0
96.332051634,4507.0
96.348762903,4474.0
96.365474171,4590.0
96.382185440,4604.0
96.398896709,4668.0
96.415607978,4716.0
96.432319247,4566.0
96.449030516,4611.0
96.465741785,4611.0
96.482453054,4668.0
96.499164323,4561.0
96.515875592,4574.0
96.532586861,4545.0
96.549298130,4571.0
96.566009399,4471.0
96.582720668,4522.0
96.599431937,4509.0
96.616143206,4592.0
96.632854475,4577.0
96.649565744,4717.0
96.666277013,4592.0
96.682988282,4456.0
96.699699551,4613.0
96.716410820,4562.0
96.733122089,4595.0
96.749833358,4523.0
96.766544627,4498.0
96.783255896,4666.0
96.799967165,4488.0
96.816678434,4758.0
96.833389703,4574.0
96.850100972,4632.0
96.866812241,4614.0
96.883523510,4436.0
96.900234779,4615.0
96.916946048,4441.0
96.933657317,4595.0
96.950368586,4476.0
96.967079855,4442.0
96.983791124,4486.0
97.000502393,4647.0
97.017213662,4710.0
97.033924931,4562.0
97.050636200,4520.0
97.067347469,4598.0
97.084058738,4575.0
97.100770007,4603.0
97.117481276,4544.0
97.134192545,4453.0
97.150903814,4588.0
97.167615083,4516.0
97.184326351,4653.0
97.201037620,4493.0
97.217748889,4547.0
97.234460158,4496.0
97.251171427,4562.0
97.267882696,4473.0
97.284593965,4587.0
97.301305234,4438.0
97.318016503,4757.0
97.334727772,4607.0
97.351439041,4575.0
97.368150310,4546.0
97.384861579,4625.0
97.401572848,4524.0
97.418284117,4501.0
97.434995386,4643.0
97.451706655,4642.0
97.468417924,4579.0
97.485129193,4556.0
97.501840462,4704.0
97.518551731,4548.0
97.535263000,4482.0
97.551974269,4622.0
97.568685538,4468.0
97.585396807,4661.0
97.602108076,4594.0
97.618819345,4611.0
97.635530614,4646.0
97.652241883,4546.0
97.668953152,4620.0
97.685664421,4639.0
97.702375690,4567.0
97.719086959,4518.0
97.735798228,4593.0
97.752509497,4547.0
97.769220766,4557.0
97.785932035,4580.0
97.802643304,4408.0
97.819354573,4470.0
97.836065842,4622.0
97.852777111,4520.0
97.869488380,4551.0
97.886199649,4575.0
97.902910918,4620.0
97.919622187,4454.0
97.936333456,4704.0
97.953044725,4653.0
97.969755994,4600.0
97.986467262,4537.0
98.003178531,4515.0
98.019889800,4658.0
98.036601069,4603.0
98.053312338,4690.0
98.070023607,4550.0
98.086734876,4563.0
98.103446145,4525.0
98.120157414,4481.0
98.136868683,4524.0
98.153579952,4579.0
98.170291221,4573.0
98.187002490,4701.0
98.203713759,4531.0
98.220425028,4537.0
98.237136297,4427.0
98.253847566,4610.0
98.270558835,4630.0
98.287270104,4526.0
98.303981373,4521.0
98.320692642,4528.0
98.337403911,4464.0
98.354115180,4490.0
98.370826449,4562.0
98.387537718,4526.0
98.404248987,4568.0
98.420960256,4552.0
98.437671525,4675.0
98.454382794,4374.0
98.471094063,4479.0
98.487805332,4376.0
98.504516601,4574.0
98.521227870,4611.0
98.537939139,4605.0
98.554650408,4579.0
98.571361677,4404.0
98.588072946,4516.0
98.604784215,4544.0
98.621495484,4482.0
98.638206753,4557.0
98.654918022,4546.0
98.671629291,4599.0
98.688340560,4452.0
98.705051829,4570.0
98.721763098,4621.0
98.738474367,4433.0
98.755185636,4625.0
98.771896905,4578.0
98.788608173,4620.0
98.805319442,4624.0
98.822030711,4535.0
98.838741980,4605.0
98.855453249,4577.0
98.872164518,4487.0
98.888875787,4626.0
98.905587056,4570.0
98.922298325,4416.0
98.939009594,4645.0
98.955720863,4427.0
98.972432132,4581.0
98.989143401,4519.0
99.005854670,4642.0
99.022565939,4760.0
99.039277208,4525.0
99.055988477,4576.0
99.072699746,4538.0
99.089411015,4650.0
99.106122284,4527.0
99.122833553,4588.0
99.139544822,4590.0
99.156256091,4537.0
99.172967360,4573.0
99.189678629,4570.0
99.206389898,4539.0
99.223101167,4472.0
99.239812436,4542.0
99.256523705,4509.0
99.273234974,4617.0
99.289946243,4568.0
99.306657512,4565.0
99.323368781,4522.0
99.340080050,4508.0
99.356791319,4592.0
99.373502588,4631.0
99.390213857,4482.0
99.406925126,4532.0
99.423636395,4593.0
99.440347664,4603.0
99.457058933,4646.0
99.473770202,4648.0
99.490481471,4546.0
99.507192740,4566.0
99.523904009,4531.0
99.540615278,4581.0
99.557326547,4540.0
99.574037816,4443.0
99.590749084,4489.0
99.607460353,4388.0
99.624171622,4604.0
99.640882891,4629.0
99.657594160,4555.0
99.674305429,4555.0
99.691016698,4702.0
99.707727967,4497.0
99.724439236,4572.0
99.741150505,4593.0
99.757861774,4506.0
99.774573043,4512.0
99.791284312,4454.0
99.807995581,4516.0
99.824706850,4494.0
99.841418119,4706.0
99.858129388,4561.0
99.874840657,4531.0
99.891551926,4727.0
99.908263195,4607.0
99.924974464,4612.0
99.941685733,4490.0
99.958397002,4649.0
99.975108271,4541.0
99.991819540,4608.0
