[Measurement conditions]
Sample identification,
Comment - 1,"finito"
Comment - 2,"Configuration=MRI TC-Basic Stage, Owner=User-1, Creation date=26-10-2009 9:18:44"
Comment - 3,"Goniometer=PW3050/60 (Theta/Theta); Minimum step size 2Theta:0.001; Minimum step size Omega:0.001"
Comment - 4,"Sample stage=MRI TC-Basic (PtRh heat strip)"
Comment - 5,"Diffractometer system=XPERT-PRO"
Comment - 6,"Measurement program=FlatStage, Owner=joana, Creation date=03-08-2011 15:43:53"
Anode material,Cu
K-Alpha1 wavelength,1.5405980
K-Alpha2 wavelength,1.5444260
Ratio K-Alpha2/K-Alpha1,0.500
Divergence slit,Fixed,0.76mm
Monochromator used,NO
Generator voltage, 45
Tube current, 40
File date and time,06/Dec/2012 20:08
Unit cell,
h k l, 0 0 0
Temperature [K],373
Scan axis,Gonio
Scan range,24.999999996,100.000175174
Scan step size,0.0167113
No. of points, 4488
Scan type,CONTINUOUS
Time per step,53.340
[Scan points]
Angle,Intensity
25.008355630,4565.0
25.025066899,4512.0
25.041778168,4550.0
25.058489437,4563.0
25.075200706,4646.0
25.091911975,4754.0
25.108623244,4440.0
25.125334513,4539.0
25.142045782,4620.0
25.158757051,4670.0
25.175468320,4377.0
25.192179589,4588.0
25.208890858,4537.0
25.225602127,4576.0
25.242313396,4475.0
25.259024665,4653.0
25.275735934,4609.0
25.292447203,4614.0
25.309158472,4658.0
25.325869741,4511.0
25.342581010,4538.0
25.359292279,4617.0
25.376003548,4479.0
25.392714817,4706.0
25.409426086,4671.0
25.426137354,4632.0
25.442848623,4567.0
25.459559892,4550.0
25.476271161,4486.0
25.492982430,4580.0
25.509693699,4673.0
25.526404968,4565.0
25.543116237,4689.0
25.559827506,4567.0
25.576538775,4680.0
25.593250044,4554.0
25.609961313,4681.0
25.626672582,4665.0
25.643383851,4706.0
25.660095120,4609.0
25.676806389,4541.0
25.693517658,4511.0
25.710228927,4604.0
25.726940196,4636.0
25.743651465,4630.0
25.760362734,4629.0
25.777074003,4598.0
25.793785272,4520.0
25.810496541,4571.0
25.827207810,4581.0
25.843919079,4476.0
25.860630348,4525.0
25.877341617,4511.0
25.894052886,4627.0
25.910764155,4495.0
25.927475424,4538.0
25.944186693,4534.0
25.960897962,4674.0
25.977609231,4527.0
25.994320500,4516.0
26.011031769,4539.0
26.027743038,4509.0
26.044454307,4697.0
26.061165576,4480.0
26.077876845,4476.0
26.094588114,4582.0
26.111299383,4468.0
26.128010652,4591.0
26.144721921,4525.0
26.161433190,4511.0
26.178144459,4704.0
26.194855728,4494.0
26.211566997,4560.0
26.228278265,4490.0
26.244989534,4581.0
26.261700803,4645.0
26.278412072,4584.0
26.295123341,4602.0
26.311834610,4590.0
26.328545879,4434.0
26.345257148,4627.0
26.361968417,4563.0
26.378679686,4530.0
26.395390955,4408.0
26.412102224,4514.0
26.428813493,4455.0
26.445524762,4593.0
26.462236031,4411.0
26.478947300,4638.0
26.495658569,4449.0
26.512369838,4545.0
26.529081107,4606.0
26.545792376,4439.0
26.562503645,4640.0
26.579214914,4605.0
26.595926183,4467.0
26.612637452,4592.0
26.629348721,4377.0
26.646059990,4551.0
26.662771259,4595.0
26.679482528,4483.0
26.696193797,4600.0
26.712905066,4672.0
26.729616335,4565.0
26.746327604,4549.0
26.763038873,4493.0
26.779750142,4609.0
26.796461411,4622.0
26.813172680,4544.0
26.829883949,4600.0
26.846595218,4496.0
26.863306487,4465.0
26.880017756,4531.0
26.896729025,4611.0
26.913440294,4545.0
26.930151563,4559.0
26.946862832,4438.0
26.963574101,4521.0
26.980285370,4644.0
26.996996639,4542.0
27.013707908,4507.0
27.030419176,4547.0
27.047130445,4613.0
27.063841714,4609.0
27.080552983,4439.0
27.097264252,4568.0
27.113975521,4473.0
27.130686790,4496.0
27.147398059,4541.0
27.164109328,4517.0
27.180820597,4512.0
27.197531866,4496.0
27.214243135,4651.0
27.230954404,4502.0
27.247665673,4539.0
27.264376942,4576.0
27.281088211,4543.0
27.297799480,4384.0
27.314510749,4500.0
27.331222018,4537.0
27.347933287,4566.0
27.364644556,4397.0
27.381355825,4543.0
27.398067094,4500.0
27.414778363,4565.0
27.431489632,4435.0
27.448200901,4681.0
27.464912170,4452.0
27.481623439,4630.0
27.498334708,4439.0
27.515045977,4543.0
27.531757246,4451.0
27.548468515,4619.0
27.565179784,4478.0
27.581891053,4610.0
27.598602322,4610.0
27.615313591,4479.0
27.632024860,4634.0
27.648736129,4586.0
27.665447398,4411.0
27.682158667,4579.0
27.698869936,4556.0
27.715581205,4462.0
27.732292474,4465.0
27.749003743,4537.0
27.765715012,4582.0
27.782426281,4553.0
27.799137550,4411.0
27.815848819,4513.0
27.832560087,4549.0
27.849271356,4597.0
27.865982625,4496.0
27.882693894,4429.0
27.899405163,4537.0
27.916116432,4563.0
27.932827701,4527.0
27.949538970,4540.0
27.966250239,4497.0
27.982961508,4433.0
27.999672777,4577.0
28.016384046,4592.0
28.033095315,4460.0
28.049806584,4451.0
28.066517853,4472.0
28.083229122,4428.0
28.099940391,4573.0
28.116651660,4577.0
28.133362929,4367.0
28.150074198,4641.0
28.166785467,4529.0
28.183496736,4524.0
28.200208005,4548.0
28.216919274,4638.0
28.233630543,4513.0
28.250341812,4599.0
28.267053081,4654.0
28.283764350,4677.0
28.300475619,4589.0
28.317186888,4403.0
28.333898157,4579.0
28.350609426,4552.0
28.367320695,4535.0
28.384031964,4521.0
28.400743233,4502.0
28.417454502,4486.0
28.434165771,4556.0
28.450877040,4599.0
28.467588309,4460.0
28.484299578,4489.0
28.501010847,4590.0
28.517722116,4528.0
28.534433385,4509.0
28.551144654,4504.0
28.567855923,4404.0
28.584567192,4459.0
28.601278461,4444.0
28.617989730,4578.0
28.634700999,4443.0
28.651412267,4507.0
28.668123536,4438.0
28.684834805,4548.0
28.701546074,4518.0
28.718257343,4537.0
28.734968612,4359.0
28.751679881,4401.0
28.768391150,4427.0
28.785102419,4576.0
28.801813688,4325.0
28.818524957,4569.0
28.835236226,4473.0
28.851947495,4546.0
28.868658764,4553.0
28.885370033,4525.0
28.902081302,4580.0
28.918792571,4687.0
28.935503840,4448.0
28.952215109,4568.0
28.968926378,4510.0
28.985637647,4525.0
29.002348916,4509.0
29.019060185,4497.0
29.035771454,4621.0
29.052482723,4525.0
29.069193992,4454.0
29.085905261,4410.0
29.102616530,4443.0
29.119327799,4530.0
29.136039068,4439.0
29.152750337,4405.0
29.169461606,4545.0
29.186172875,4492.0
29.202884144,4489.0
29.219595413,4535.0
29.236306682,4474.0
29.253017951,4527.0
29.269729220,4506.0
29.286440489,4600.0
29.303151758,4657.0
29.319863027,4495.0
29.336574296,4491.0
29.353285565,4486.0
29.369996834,4556.0
29.386708103,4451.0
29.403419372,4629.0
29.420130641,4572.0
29.436841910,4596.0
29.453553178,4506.0
29.470264447,4493.0
29.486975716,4450.0
29.503686985,4479.0
29.520398254,4539.0
29.537109523,4526.0
29.553820792,4546.0
29.570532061,4459.0
29.587243330,4598.0
29.603954599,4469.0
29.620665868,4500.0
29.637377137,4531.0
29.654088406,4595.0
29.670799675,4529.0
29.687510944,4574.0
29.704222213,4546.0
29.720933482,4437.0
29.737644751,4623.0
29.754356020,4564.0
29.771067289,4458.0
29.787778558,4502.0
29.804489827,4369.0
29.821201096,4414.0
29.837912365,4529.0
29.854623634,4494.0
29.871334903,4391.0
29.888046172,4506.0
29.904757441,4478.0
29.921468710,4479.0
29.938179979,4443.0
29.954891248,4467.0
29.971602517,4487.0
29.988313786,4451.0
30.005025055,4357.0
30.021736324,4474.0
30.038447593,4555.0
30.055158862,4529.0
30.071870131,4499.0
30.088581400,4430.0
30.105292669,4592.0
30.122003938,4535.0
30.138715207,4570.0
30.155426476,4567.0
30.172137745,4462.0
30.188849014,4591.0
30.205560283,4390.0
30.222271552,4472.0
30.238982821,4406.0
30.255694089,4400.0
30.272405358,4490.0
30.289116627,4594.0
30.305827896,4490.0
30.322539165,4479.0
30.339250434,4476.0
30.355961703,4481.0
30.372672972,4379.0
30.389384241,4475.0
30.406095510,4554.0
30.422806779,4483.0
30.439518048,4464.0
30.456229317,4271.0
30.472940586,4465.0
30.489651855,4489.0
30.506363124,4432.0
30.523074393,4517.0
30.539785662,4538.0
30.556496931,4531.0
30.573208200,4503.0
30.589919469,4455.0
30.606630738,4454.0
30.623342007,4395.0
30.640053276,4472.0
30.656764545,4429.0
30.673475814,4630.0
30.690187083,4591.0
30.706898352,4429.0
30.723609621,4397.0
30.740320890,4538.0
30.757032159,4447.0
30.773743428,4449.0
30.790454697,4552.0
30.807165966,4460.0
30.823877235,4436.0
30.840588504,4541.0
30.857299773,4458.0
30.874011042,4638.0
30.890722311,4494.0
30.907433580,4411.0
30.924144849,4387.0
30.940856118,4493.0
30.957567387,4518.0
30.974278656,4536.0
30.990989925,4535.0
31.007701194,4509.0
31.024412463,4470.0
31.041123732,4467.0
31.057835000,4459.0
31.074546269,4483.0
31.091257538,4392.0
31.107968807,4422.0
31.124680076,4634.0
31.141391345,4529.0
31.158102614,4325.0
31.174813883,4438.0
31.191525152,4641.0
31.208236421,4396.0
31.224947690,4427.0
31.241658959,4483.0
31.258370228,4464.0
31.275081497,4466.0
31.291792766,4504.0
31.308504035,4475.0
31.325215304,4397.0
31.341926573,4459.0
31.358637842,4402.0
31.375349111,4523.0
31.392060380,4406.0
31.408771649,4276.0
31.425482918,4476.0
31.442194187,4487.0
31.458905456,4472.0
31.475616725,4480.0
31.492327994,4397.0
31.509039263,4562.0
31.525750532,4460.0
31.542461801,4502.0
31.559173070,4443.0
31.575884339,4423.0
31.592595608,4358.0
31.609306877,4563.0
31.626018146,4388.0
31.642729415,4573.0
31.659440684,4576.0
31.676151953,4530.0
31.692863222,4551.0
31.709574491,4470.0
31.726285760,4389.0
31.742997029,4361.0
31.759708298,4557.0
31.776419567,4456.0
31.793130836,4553.0
31.809842105,4487.0
31.826553374,4494.0
31.843264643,4491.0
31.859975912,4491.0
31.876687180,4354.0
31.893398449,4500.0
31.910109718,4390.0
31.926820987,4468.0
31.943532256,4578.0
31.960243525,4445.0
31.976954794,4386.0
31.993666063,4306.0
32.010377332,4508.0
32.027088601,4506.0
32.043799870,4508.0
32.060511139,4545.0
32.077222408,4411.0
32.093933677,4471.0
32.110644946,4465.0
32.127356215,4459.0
32.144067484,4528.0
32.160778753,4456.0
32.177490022,4504.0
32.194201291,4464.0
32.210912560,4507.0
32.227623829,4579.0
32.244335098,4367.0
32.261046367,4423.0
32.277757636,4441.0
32.294468905,4607.0
32.311180174,4418.0
32.327891443,4411.0
32.344602712,4505.0
32.361313981,4407.0
32.378025250,4416.0
32.394736519,4515.0
32.411447788,4405.0
32.428159057,4436.0
32.444870326,4511.0
32.461581595,4543.0
32.478292864,4384.0
32.495004133,4375.0
32.511715402,4473.0
32.528426671,4436.0
32.545137940,4457.0
32.561849209,4385.0
32.578560478,4537.0
32.595271747,4467.0
32.611983016,4489.0
32.628694285,4451.0
32.645405554,4526.0
32.662116823,4485.0
32.678828091,4446.0
32.695539360,4392.0
32.712250629,4390.0
32.728961898,4443.0
32.745673167,4515.0
32.762384436,4347.0
32.779095705,4481.0
32.795806974,4386.0
32.812518243,4507.0
32.829229512,4405.0
32.845940781,4441.0
32.862652050,4453.0
32.879363319,4444.0
32.896074588,4559.0
32.912785857,4438.0
32.929497126,4613.0
32.946208395,4460.0
32.962919664,4442.0
32.979630933,4425.0
32.996342202,4361.0
33.013053471,4458.0
33.029764740,4546.0
33.046476009,4500.0
33.063187278,4477.0
33.079898547,4390.0
33.096609816,4483.0
33.113321085,4346.0
33.130032354,4379.0
33.146743623,4416.0
33.163454892,4481.0
33.180166161,4555.0
33.196877430,4339.0
33.213588699,4537.0
33.230299968,4306.0
33.247011237,4482.0
33.263722506,4412.0
33.280433775,4409.0
33.297145044,4368.0
33.313856313,4416.0
33.330567582,4428.0
33.347278851,4536.0
33.363990120,4277.0
33.380701389,4489.0
33.397412658,4466.0
33.414123927,4520.0
33.430835196,4360.0
33.447546465,4448.0
33.464257734,4639.0
33.480969002,4207.0
33.497680271,4330.0
33.514391540,4401.0
33.531102809,4417.0
33.547814078,4482.0
33.564525347,4569.0
33.581236616,4442.0
33.597947885,4461.0
33.614659154,4344.0
33.631370423,4522.0
33.648081692,4546.0
33.664792961,4420.0
33.681504230,4462.0
33.698215499,4534.0
33.714926768,4532.0
33.731638037,4470.0
33.748349306,4413.0
33.765060575,4425.0
33.781771844,4291.0
33.798483113,4542.0
33.815194382,4476.0
33.831905651,4415.0
33.848616920,4462.0
33.865328189,4418.0
33.882039458,4471.0
33.898750727,4455.0
33.915461996,4404.0
33.932173265,4520.0
33.948884534,4433.0
33.965595803,4436.0
33.982307072,4320.0
33.999018341,4474.0
34.015729610,4472.0
34.032440879,4516.0
34.049152148,4550.0
34.065863417,4506.0
34.082574686,4569.0
34.099285955,4562.0
34.115997224,4520.0
34.132708493,4440.0
34.149419762,4480.0
34.166131031,4481.0
34.182842300,4420.0
34.199553569,4548.0
34.216264838,4595.0
34.232976107,4551.0
34.249687376,4532.0
34.266398645,4381.0
34.283109913,4374.0
34.299821182,4434.0
34.316532451,4523.0
34.333243720,4514.0
34.349954989,4319.0
34.366666258,4514.0
34.383377527,4388.0
34.400088796,4398.0
34.416800065,4344.0
34.433511334,4439.0
34.450222603,4373.0
34.466933872,4417.0
34.483645141,4616.0
34.500356410,4492.0
34.517067679,4345.0
34.533778948,4352.0
34.550490217,4371.0
34.567201486,4426.0
34.583912755,4472.0
34.600624024,4410.0
34.617335293,4475.0
34.634046562,4507.0
34.650757831,4497.0
34.667469100,4432.0
34.684180369,4507.0
34.700891638,4567.0
34.717602907,4379.0
34.734314176,4388.0
34.751025445,4429.0
34.767736714,4491.0
34.784447983,4568.0
34.801159252,4485.0
34.817870521,4394.0
34.834581790,4404.0
34.851293059,4449.0
34.868004328,4485.0
34.884715597,4486.0
34.901426866,4393.0
34.918138135,4363.0
34.934849404,4512.0
34.951560673,4596.0
34.968271942,4549.0
34.984983211,4545.0
35.001694480,4548.0
35.018405749,4476.0
35.035117018,4460.0
35.051828287,4410.0
35.068539556,4351.0
35.085250825,4504.0
35.101962093,4406.0
35.118673362,4336.0
35.135384631,4530.0
35.152095900,4536.0
35.168807169,4577.0
35.185518438,4500.0
35.202229707,4498.0
35.218940976,4550.0
35.235652245,4483.0
35.252363514,4485.0
35.269074783,4453.0
35.285786052,4468.0
35.302497321,4395.0
35.319208590,4531.0
35.335919859,4344.0
35.352631128,4478.0
35.369342397,4449.0
35.386053666,4460.0
35.402764935,4364.0
35.419476204,4424.0
35.436187473,4384.0
35.452898742,4443.0
35.469610011,4266.0
35.486321280,4434.0
35.503032549,4356.0
35.519743818,4429.0
35.536455087,4598.0
35.553166356,4593.0
35.569877625,4432.0
35.586588894,4397.0
35.603300163,4582.0
35.620011432,4531.0
35.636722701,4430.0
35.653433970,4517.0
35.670145239,4469.0
35.686856508,4413.0
35.703567777,4454.0
35.720279046,4441.0
35.736990315,4372.0
35.753701584,4425.0
35.770412853,4440.0
35.787124122,4403.0
35.803835391,4418.0
35.820546660,4440.0
35.837257929,4475.0
35.853969198,4396.0
35.870680467,4401.0
35.887391736,4638.0
35.904103004,4465.0
35.920814273,4457.0
35.937525542,4433.0
35.954236811,4417.0
35.970948080,4530.0
35.987659349,4527.0
36.004370618,4506.0
36.021081887,4373.0
36.037793156,4327.0
36.054504425,4450.0
36.071215694,4420.0
36.087926963,4464.0
36.104638232,4474.0
36.121349501,4500.0
36.138060770,4321.0
36.154772039,4293.0
36.171483308,4390.0
36.188194577,4418.0
36.204905846,4436.0
36.221617115,4550.0
36.238328384,4360.0
36.255039653,4405.0
36.271750922,4272.0
36.288462191,4366.0
36.305173460,4441.0
36.321884729,4488.0
36.338595998,4423.0
36.355307267,4461.0
36.372018536,4420.0
36.388729805,4520.0
36.405441074,4380.0
36.422152343,4448.0
36.438863612,4407.0
36.455574881,4488.0
36.472286150,4432.0
36.488997419,4547.0
36.505708688,4458.0
36.522419957,4459.0
36.539131226,4485.0
36.555842495,4404.0
36.572553764,4497.0
36.589265033,4245.0
36.605976302,4463.0
36.622687571,4340.0
36.639398840,4371.0
36.656110109,4483.0
36.672821378,4545.0
36.689532647,4514.0
36.706243915,4543.0
36.722955184,4517.0
36.739666453,4418.0
36.756377722,4518.0
36.773088991,4374.0
36.789800260,4459.0
36.806511529,4588.0
36.823222798,4493.0
36.839934067,4493.0
36.856645336,4457.0
36.873356605,4487.0
36.890067874,4518.0
36.906779143,4414.0
36.923490412,4590.0
36.940201681,4502.0
36.956912950,4476.0
36.973624219,4501.0
36.990335488,4531.0
37.007046757,4525.0
37.023758026,4429.0
37.040469295,4593.0
37.057180564,4532.0
37.073891833,4537.0
37.090603102,4539.0
37.107314371,4492.0
37.124025640,4380.0
37.140736909,4574.0
37.157448178,4410.0
37.174159447,4372.0
37.190870716,4485.0
37.207581985,4388.0
37.224293254,4395.0
37.241004523,4543.0
37.257715792,4505.0
37.274427061,4442.0
37.291138330,4568.0
37.307849599,4576.0
37.324560868,4519.0
37.341272137,4597.0
37.357983406,4372.0
37.374694675,4563.0
37.391405944,4488.0
37.408117213,4544.0
37.424828482,4516.0
37.441539751,4510.0
37.458251020,4563.0
37.474962289,4369.0
37.491673558,4561.0
37.508384826,4516.0
37.525096095,4495.0
37.541807364,4514.0
37.558518633,4560.0
37.575229902,4470.0
37.591941171,4498.0
37.608652440,4520.0
37.625363709,4442.0
37.642074978,4533.0
37.658786247,4506.0
37.675497516,4539.0
37.692208785,4452.0
37.708920054,4547.0
37.725631323,4579.0
37.742342592,4471.0
37.759053861,4641.0
37.775765130,4551.0
37.792476399,4547.0
37.809187668,4533.0
37.825898937,4490.0
37.842610206,4448.0
37.859321475,4566.0
37.876032744,4502.0
37.892744013,4466.0
37.909455282,4668.0
37.926166551,4444.0
37.942877820,4640.0
37.959589089,4544.0
37.976300358,4558.0
37.993011627,4494.0
38.009722896,4530.0
38.026434165,4547.0
38.043145434,4523.0
38.059856703,4574.0
38.076567972,4625.0
38.093279241,4467.0
38.109990510,4528.0
38.126701779,4520.0
38.143413048,4488.0
38.160124317,4550.0
38.176835586,4562.0
38.193546855,4624.0
38.210258124,4521.0
38.226969393,4568.0
38.243680662,4461.0
38.260391931,4491.0
38.277103200,4484.0
38.293814469,4618.0
38.310525738,4396.0
38.327237006,4651.0
38.343948275,4712.0
38.360659544,4566.0
38.377370813,4645.0
38.394082082,4655.0
38.410793351,4613.0
38.427504620,4620.0
38.444215889,4710.0
38.460927158,4609.0
38.477638427,4557.0
38.494349696,4697.0
38.511060965,4604.0
38.527772234,4666.0
38.544483503,4745.0
38.561194772,4626.0
38.577906041,4630.0
38.594617310,4795.0
38.611328579,4506.0
38.628039848,4668.0
38.644751117,4708.0
38.661462386,4862.0
38.678173655,4909.0
38.694884924,5075.0
38.711596193,5359.0
38.728307462,5614.0
38.745018731,5762.0
38.761730000,5355.0
38.778441269,5116.0
38.795152538,4823.0
38.811863807,4781.0
38.828575076,4628.0
38.845286345,4675.0
38.861997614,4763.0
38.878708883,4600.0
38.895420152,4574.0
38.912131421,4724.0
38.928842690,4623.0
38.945553959,4633.0
38.962265228,4656.0
38.978976497,4647.0
38.995687766,4693.0
39.012399035,4525.0
39.029110304,4644.0
39.045821573,4619.0
39.062532842,4457.0
39.079244111,4611.0
39.095955380,4731.0
39.112666649,4543.0
39.129377917,4618.0
39.146089186,4590.0
39.162800455,4666.0
39.179511724,4468.0
39.196222993,4614.0
39.212934262,4489.0
39.229645531,4598.0
39.246356800,4657.0
39.263068069,4560.0
39.279779338,4501.0
39.296490607,4640.0
39.313201876,4648.0
39.329913145,4533.0
39.346624414,4653.0
39.363335683,4623.0
39.380046952,4647.0
39.396758221,4629.0
39.413469490,4528.0
39.430180759,4490.0
39.446892028,4559.0
39.463603297,4546.0
39.480314566,4593.0
39.497025835,4665.0
39.513737104,4511.0
39.530448373,4620.0
39.547159642,4496.0
39.563870911,4643.0
39.580582180,4674.0
39.597293449,4458.0
39.614004718,4611.0
39.630715987,4586.0
39.647427256,4540.0
39.664138525,4690.0
39.680849794,4711.0
39.697561063,4551.0
39.714272332,4641.0
39.730983601,4587.0
39.747694870,4714.0
39.764406139,4405.0
39.781117408,4638.0
39.797828677,4579.0
39.814539946,4588.0
39.831251215,4449.0
39.847962484,4563.0
39.864673753,4474.0
39.881385022,4572.0
39.898096291,4542.0
39.914807560,4574.0
39.931518828,4612.0
39.948230097,4504.0
39.964941366,4511.0
39.981652635,4574.0
39.998363904,4550.0
40.015075173,4550.0
40.031786442,4630.0
40.048497711,4488.0
40.065208980,4639.0
40.081920249,4571.0
40.098631518,4668.0
40.115342787,4582.0
40.132054056,4558.0
40.148765325,4559.0
40.165476594,4568.0
40.182187863,4443.0
40.198899132,4572.0
40.215610401,4465.0
40.232321670,4606.0
40.249032939,4604.0
40.265744208,4549.0
40.282455477,4492.0
40.299166746,4516.0
40.315878015,4482.0
40.332589284,4551.0
40.349300553,4637.0
40.366011822,4529.0
40.382723091,4564.0
40.399434360,4578.0
40.416145629,4629.0
40.432856898,4716.0
40.449568167,4574.0
40.466279436,4582.0
40.482990705,4610.0
40.499701974,4545.0
40.516413243,4562.0
40.533124512,4746.0
40.549835781,4532.0
40.566547050,4566.0
40.583258319,4510.0
40.599969588,4546.0
40.616680857,4598.0
40.633392126,4583.0
40.650103395,4615.0
40.666814664,4529.0
40.683525933,4742.0
40.700237202,4679.0
40.716948471,4527.0
40.733659739,4580.0
40.750371008,4567.0
40.767082277,4597.0
40.783793546,4583.0
40.800504815,4372.0
40.817216084,4584.0
40.833927353,4634.0
40.850638622,4634.0
40.867349891,4708.0
40.884061160,4593.0
40.900772429,4645.0
40.917483698,4520.0
40.934194967,4574.0
40.950906236,4513.0
40.967617505,4670.0
40.984328774,4566.0
41.001040043,4771.0
41.017751312,4605.0
41.034462581,4506.0
41.051173850,4674.0
41.067885119,4630.0
41.084596388,4596.0
41.101307657,4613.0
41.118018926,4596.0
41.134730195,4669.0
41.151441464,4622.0
41.168152733,4693.0
41.184864002,4661.0
41.201575271,4634.0
41.218286540,4591.0
41.234997809,4577.0
41.251709078,4604.0
41.268420347,4662.0
41.285131616,4681.0
41.301842885,4673.0
41.318554154,4685.0
41.335265423,4674.0
41.351976692,4567.0
41.368687961,4701.0
41.385399230,4699.0
41.402110499,4849.0
41.418821768,4580.0
41.435533037,4685.0
41.452244306,4732.0
41.468955575,4584.0
41.485666844,4764.0
41.502378113,4968.0
41.519089382,4985.0
41.535800651,5282.0
41.552511919,5236.0
41.569223188,5560.0
41.585934457,5400.0
41.602645726,5458.0
41.619356995,5379.0
41.636068264,5489.0
41.652779533,5483.0
41.669490802,5592.0
41.686202071,5469.0
41.702913340,5372.0
41.719624609,5552.0
41.736335878,5545.0
41.753047147,5461.0
41.769758416,5433.0
41.786469685,5555.0
41.803180954,5614.0
41.819892223,5409.0
41.836603492,5518.0
41.853314761,5541.0
41.870026030,5563.0
41.886737299,5496.0
41.903448568,5575.0
41.920159837,5484.0
41.936871106,5538.0
41.953582375,5534.0
41.970293644,5544.0
41.987004913,5414.0
42.003716182,5657.0
42.020427451,5605.0
42.037138720,5578.0
42.053849989,5490.0
42.070561258,5648.0
42.087272527,5696.0
42.103983796,5725.0
42.120695065,5747.0
42.137406334,5810.0
42.154117603,5873.0
42.170828872,5778.0
42.187540141,5626.0
42.204251410,5816.0
42.220962679,5763.0
42.237673948,5685.0
42.254385217,5717.0
42.271096486,5705.0
42.287807755,5754.0
42.304519024,5783.0
42.321230293,5906.0
42.337941562,5624.0
42.354652830,5821.0
42.371364099,5671.0
42.388075368,5767.0
42.404786637,5794.0
42.421497906,5814.0
42.438209175,5827.0
42.454920444,5851.0
42.471631713,5783.0
42.488342982,5725.0
42.505054251,6033.0
42.521765520,6045.0
42.538476789,6009.0
42.555188058,6025.0
42.571899327,6280.0
42.588610596,6178.0
42.605321865,6238.0
42.622033134,6429.0
42.638744403,6396.0
42.655455672,6404.0
42.672166941,6740.0
42.688878210,6853.0
42.705589479,7053.0
42.722300748,7287.0
42.739012017,7698.0
42.755723286,8156.0
42.772434555,8908.0
42.789145824,10018.0
42.805857093,10987.0
42.822568362,12094.0
42.839279631,13127.0
42.855990900,14057.0
42.872702169,15707.0
42.889413438,16921.0
42.906124707,18762.0
42.922835976,20173.0
42.939547245,22238.0
42.956258514,26258.0
42.972969783,32159.0
42.989681052,42478.0
43.006392321,59268.0
43.023103590,87890.0
43.039814859,136282.0
43.056526128,223280.0
43.073237397,358296.0
43.089948666,467831.0
43.106659935,404003.0
43.123371204,251929.0
43.140082473,150997.0
43.156793741,124449.0
43.173505010,152199.0
43.190216279,211323.0
43.206927548,241107.0
43.223638817,189137.0
43.240350086,110375.0
43.257061355,58852.0
43.273772624,35101.0
43.290483893,25664.0
43.307195162,20238.0
43.323906431,16880.0
43.340617700,14622.0
43.357328969,13152.0
43.374040238,11785.0
43.390751507,11067.0
43.407462776,10329.0
43.424174045,9482.0
43.440885314,8851.0
43.457596583,8367.0
43.474307852,7778.0
43.491019121,7585.0
43.507730390,7315.0
43.524441659,7145.0
43.541152928,6980.0
43.557864197,6823.0
43.574575466,6625.0
43.591286735,6758.0
43.607998004,6618.0
43.624709273,6438.0
43.641420542,6363.0
43.658131811,6189.0
43.674843080,6191.0
43.691554349,6215.0
43.708265618,5995.0
43.724976887,6208.0
43.741688156,6217.0
43.758399425,5784.0
43.775110694,6038.0
43.791821963,6095.0
43.808533232,5962.0
43.825244501,5823.0
43.841955770,5814.0
43.858667039,5686.0
43.875378308,5685.0
43.892089577,5844.0
43.908800846,5740.0
43.925512115,5628.0
43.942223384,5727.0
43.958934652,5618.0
43.975645921,5723.0
43.992357190,5647.0
44.009068459,5592.0
44.025779728,5603.0
44.042490997,5673.0
44.059202266,5518.0
44.075913535,5497.0
44.092624804,5517.0
44.109336073,5482.0
44.126047342,5584.0
44.142758611,5685.0
44.159469880,5488.0
44.176181149,5515.0
44.192892418,5419.0
44.209603687,5485.0
44.226314956,5491.0
44.243026225,5302.0
44.259737494,5222.0
44.276448763,5552.0
44.293160032,5367.0
44.309871301,5409.0
44.326582570,5377.0
44.343293839,5287.0
44.360005108,5473.0
44.376716377,5389.0
44.393427646,5365.0
44.410138915,5449.0
44.426850184,5280.0
44.443561453,5378.0
44.460272722,5440.0
44.476983991,5374.0
44.493695260,5196.0
44.510406529,5285.0
44.527117798,5440.0
44.543829067,5254.0
44.560540336,5280.0
44.577251605,5101.0
44.593962874,5196.0
44.610674143,5320.0
44.627385412,5255.0
44.644096681,5209.0
44.660807950,5285.0
44.677519219,5261.0
44.694230488,5191.0
44.710941757,5299.0
44.727653026,5102.0
44.744364295,5187.0
44.761075564,5275.0
44.777786832,5352.0
44.794498101,5232.0
44.811209370,5186.0
44.827920639,5189.0
44.844631908,5245.0
44.861343177,5305.0
44.878054446,5132.0
44.894765715,5114.0
44.911476984,5188.0
44.928188253,5324.0
44.944899522,5176.0
44.961610791,5235.0
44.978322060,5349.0
44.995033329,5308.0
45.011744598,5230.0
45.028455867,5558.0
45.045167136,5659.0
45.061878405,5886.0
45.078589674,5988.0
45.095300943,5823.0
45.112012212,5504.0
45.128723481,5435.0
45.145434750,5320.0
45.162146019,5306.0
45.178857288,5116.0
45.195568557,5286.0
45.212279826,5095.0
45.228991095,5276.0
45.245702364,5208.0
45.262413633,5094.0
45.279124902,5075.0
45.295836171,5088.0
45.312547440,5204.0
45.329258709,5067.0
45.345969978,5145.0
45.362681247,5002.0
45.379392516,5017.0
45.396103785,5063.0
45.412815054,4976.0
45.429526323,5204.0
45.446237592,5081.0
45.462948861,5074.0
45.479660130,5063.0
45.496371399,5185.0
45.513082668,5060.0
45.529793937,5025.0
45.546505206,4996.0
45.563216475,5061.0
45.579927743,4819.0
45.596639012,5140.0
45.613350281,5080.0
45.630061550,5037.0
45.646772819,5075.0
45.663484088,4916.0
45.680195357,5031.0
45.696906626,4945.0
45.713617895,5025.0
45.730329164,5016.0
45.747040433,4963.0
45.763751702,5068.0
45.780462971,4877.0
45.797174240,5011.0
45.813885509,4913.0
45.830596778,4917.0
45.847308047,4925.0
45.864019316,5072.0
45.880730585,4926.0
45.897441854,5101.0
45.914153123,4888.0
45.930864392,5105.0
45.947575661,4909.0
45.964286930,4861.0
45.980998199,5099.0
45.997709468,4955.0
46.014420737,5017.0
46.031132006,5120.0
46.047843275,4942.0
46.064554544,4928.0
46.081265813,5021.0
46.097977082,4942.0
46.114688351,4911.0
46.131399620,4911.0
46.148110889,4972.0
46.164822158,4912.0
46.181533427,4903.0
46.198244696,4946.0
46.214955965,4938.0
46.231667234,5061.0
46.248378503,4943.0
46.265089772,4970.0
46.281801041,4995.0
46.298512310,4945.0
46.315223579,5082.0
46.331934848,4828.0
46.348646117,4917.0
46.365357386,4925.0
46.382068654,5160.0
46.398779923,4897.0
46.415491192,5105.0
46.432202461,5176.0
46.448913730,5150.0
46.465624999,5146.0
46.482336268,5350.0
46.499047537,5233.0
46.515758806,5053.0
46.532470075,4983.0
46.549181344,4950.0
46.565892613,5276.0
46.582603882,5279.0
46.599315151,5251.0
46.616026420,5073.0
46.632737689,5027.0
46.649448958,5125.0
46.666160227,4939.0
46.682871496,5058.0
46.699582765,5009.0
46.716294034,4993.0
46.733005303,5024.0
46.749716572,5008.0
46.766427841,5197.0
46.783139110,5152.0
46.799850379,5341.0
46.816561648,5546.0
46.833272917,5534.0
46.849984186,5544.0
46.866695455,5434.0
46.883406724,5165.0
46.900117993,5091.0
46.916829262,5194.0
46.933540531,5271.0
46.950251800,5183.0
46.966963069,5142.0
46.983674338,5085.0
47.000385607,5080.0
47.017096876,5053.0
47.033808145,4976.0
47.050519414,4913.0
47.067230683,4780.0
47.083941952,4907.0
47.100653221,4835.0
47.117364490,4866.0
47.134075759,4815.0
47.150787028,4909.0
47.167498297,4890.0
47.184209565,4886.0
47.200920834,4820.0
47.217632103,4745.0
47.234343372,4875.0
47.251054641,4953.0
47.267765910,4996.0
47.284477179,4916.0
47.301188448,4820.0
47.317899717,4890.0
47.334610986,4883.0
47.351322255,4949.0
47.368033524,4965.0
47.384744793,4763.0
47.401456062,4788.0
47.418167331,4774.0
47.434878600,4894.0
47.451589869,4708.0
47.468301138,4900.0
47.485012407,4834.0
47.501723676,4807.0
47.518434945,4781.0
47.535146214,4798.0
47.551857483,4959.0
47.568568752,4857.0
47.585280021,4727.0
47.601991290,4801.0
47.618702559,4924.0
47.635413828,4779.0
47.652125097,4950.0
47.668836366,4709.0
47.685547635,4954.0
47.702258904,4822.0
47.718970173,4904.0
47.735681442,4766.0
47.752392711,4716.0
47.769103980,4979.0
47.785815249,4755.0
47.802526518,4732.0
47.819237787,4789.0
47.835949056,4799.0
47.852660325,4797.0
47.869371594,4865.0
47.886082863,4908.0
47.902794132,4763.0
47.919505401,4816.0
47.936216670,4827.0
47.952927939,4784.0
47.969639208,4777.0
47.986350477,4846.0
48.003061745,4742.0
48.019773014,4897.0
48.036484283,4935.0
48.053195552,4846.0
48.069906821,4801.0
48.086618090,4899.0
48.103329359,4882.0
48.120040628,4791.0
48.136751897,4805.0
48.153463166,4819.0
48.170174435,4841.0
48.186885704,4843.0
48.203596973,4833.0
48.220308242,4805.0
48.237019511,4802.0
48.253730780,4852.0
48.270442049,4908.0
48.287153318,4827.0
48.303864587,4955.0
48.320575856,4842.0
48.337287125,4891.0
48.353998394,4983.0
48.370709663,5103.0
48.387420932,5174.0
48.404132201,5399.0
48.420843470,5481.0
48.437554739,5308.0
48.454266008,5456.0
48.470977277,5406.0
48.487688546,5361.0
48.504399815,5348.0
48.521111084,5463.0
48.537822353,5456.0
48.554533622,5514.0
48.571244891,5368.0
48.587956160,5400.0
48.604667429,5440.0
48.621378698,5304.0
48.638089967,5551.0
48.654801236,5363.0
48.671512505,5274.0
48.688223774,5479.0
48.704935043,5535.0
48.721646312,5367.0
48.738357581,5379.0
48.755068850,5537.0
48.771780119,5364.0
48.788491388,5471.0
48.805202656,5408.0
48.821913925,5529.0
48.838625194,5338.0
48.855336463,5441.0
48.872047732,5536.0
48.888759001,5338.0
48.905470270,5477.0
48.922181539,5510.0
48.938892808,5480.0
48.955604077,5454.0
48.972315346,5465.0
48.989026615,5570.0
49.005737884,5524.0
49.022449153,5585.0
49.039160422,5574.0
49.055871691,5632.0
49.072582960,5670.0
49.089294229,5673.0
49.106005498,5651.0
49.122716767,5566.0
49.139428036,5694.0
49.156139305,5464.0
49.172850574,5594.0
49.189561843,5685.0
49.206273112,5521.0
49.222984381,5561.0
49.239695650,5545.0
49.256406919,5564.0
49.273118188,5716.0
49.289829457,5703.0
49.306540726,5666.0
49.323251995,5608.0
49.339963264,5615.0
49.356674533,5594.0
49.373385802,5459.0
49.390097071,5631.0
49.406808340,5572.0
49.423519609,5729.0
49.440230878,5609.0
49.456942147,5688.0
49.473653416,5699.0
49.490364685,5692.0
49.507075954,5604.0
49.523787223,5799.0
49.540498492,5745.0
49.557209761,5782.0
49.573921030,5669.0
49.590632299,5898.0
49.607343567,5803.0
49.624054836,5864.0
49.640766105,5981.0
49.657477374,5943.0
49.674188643,5964.0
49.690899912,6069.0
49.707611181,6264.0
49.724322450,6346.0
49.741033719,6325.0
49.757744988,6578.0
49.774456257,6398.0
49.791167526,6749.0
49.807878795,6686.0
49.824590064,7078.0
49.841301333,7351.0
49.858012602,7845.0
49.874723871,8153.0
49.891435140,8948.0
49.908146409,9959.0
49.924857678,11055.0
49.941568947,12379.0
49.958280216,13344.0
49.974991485,14165.0
49.991702754,15128.0
50.008414023,15807.0
50.025125292,16746.0
50.041836561,18048.0
50.058547830,19927.0
50.075259099,22794.0
50.091970368,27838.0
50.108681637,35360.0
50.125392906,48664.0
50.142104175,70809.0
50.158815444,107078.0
50.175526713,164733.0
50.192237982,250906.0
50.208949251,338370.0
50.225660520,349259.0
50.242371789,265036.0
50.259083058,169955.0
50.275794327,114817.0
50.292505596,97878.0
50.309216865,109085.0
50.325928134,142352.0
50.342639403,178355.0
50.359350672,181769.0
50.376061941,139814.0
50.392773210,89755.0
50.409484478,53957.0
50.426195747,35006.0
50.442907016,25434.0
50.459618285,19793.0
50.476329554,16131.0
50.493040823,14211.0
50.509752092,12649.0
50.526463361,11558.0
50.543174630,10588.0
50.559885899,9843.0
50.576597168,9045.0
50.593308437,8503.0
50.610019706,7987.0
50.626730975,7539.0
50.643442244,7329.0
50.660153513,6957.0
50.676864782,6820.0
50.693576051,6779.0
50.710287320,6592.0
50.726998589,6415.0
50.743709858,6375.0
50.760421127,6388.0
50.777132396,6112.0
50.793843665,6057.0
50.810554934,6076.0
50.827266203,5843.0
50.843977472,6142.0
50.860688741,5997.0
50.877400010,5837.0
50.894111279,5785.0
50.910822548,5851.0
50.927533817,5780.0
50.944245086,5577.0
50.960956355,5590.0
50.977667624,5712.0
50.994378893,5683.0
51.011090162,5648.0
51.027801431,5506.0
51.044512700,5503.0
51.061223969,5536.0
51.077935238,5582.0
51.094646507,5480.0
51.111357776,5354.0
51.128069045,5457.0
51.144780314,5362.0
51.161491583,5387.0
51.178202852,5392.0
51.194914121,5418.0
51.211625390,5279.0
51.228336658,5314.0
51.245047927,5353.0
51.261759196,5179.0
51.278470465,5301.0
51.295181734,5235.0
51.311893003,5310.0
51.328604272,5285.0
51.345315541,5239.0
51.362026810,5286.0
51.378738079,5253.0
51.395449348,5201.0
51.412160617,5190.0
51.428871886,5263.0
51.445583155,5182.0
51.462294424,5199.0
51.479005693,5252.0
51.495716962,5186.0
51.512428231,5113.0
51.529139500,5166.0
51.545850769,5288.0
51.562562038,5035.0
51.579273307,5167.0
51.595984576,5124.0
51.612695845,5069.0
51.629407114,5083.0
51.646118383,4982.0
51.662829652,5124.0
51.679540921,5121.0
51.696252190,4982.0
51.712963459,5027.0
51.729674728,5143.0
51.746385997,4983.0
51.763097266,4998.0
51.779808535,5104.0
51.796519804,5038.0
51.813231073,5041.0
51.829942342,5130.0
51.846653611,4981.0
51.863364880,5023.0
51.880076149,5079.0
51.896787418,4957.0
51.913498687,5102.0
51.930209956,4944.0
51.946921225,5054.0
51.963632494,4887.0
51.980343763,4947.0
51.997055032,5109.0
52.013766301,5008.0
52.030477569,5074.0
52.047188838,4905.0
52.063900107,4993.0
52.080611376,4901.0
52.097322645,4967.0
52.114033914,4950.0
52.130745183,4728.0
52.147456452,5083.0
52.164167721,4999.0
52.180878990,4948.0
52.197590259,5018.0
52.214301528,5077.0
52.231012797,5148.0
52.247724066,4912.0
52.264435335,4808.0
52.281146604,5000.0
52.297857873,5068.0
52.314569142,4800.0
52.331280411,4893.0
52.347991680,4884.0
52.364702949,4917.0
52.381414218,4718.0
52.398125487,4842.0
52.414836756,4965.0
52.431548025,4800.0
52.448259294,4859.0
52.464970563,4888.0
52.481681832,4898.0
52.498393101,4827.0
52.515104370,4806.0
52.531815639,4997.0
52.548526908,4767.0
52.565238177,4850.0
52.581949446,4897.0
52.598660715,4849.0
52.615371984,4817.0
52.632083253,4776.0
52.648794522,4945.0
52.665505791,5063.0
52.682217060,4824.0
52.698928329,4759.0
52.715639598,4810.0
52.732350867,4769.0
52.749062136,4995.0
52.765773405,4886.0
52.782484674,4791.0
52.799195943,4814.0
52.815907212,4925.0
52.832618480,4881.0
52.849329749,4838.0
52.866041018,4736.0
52.882752287,4975.0
52.899463556,4744.0
52.916174825,4809.0
52.932886094,4758.0
52.949597363,4712.0
52.966308632,4794.0
52.983019901,4869.0
52.999731170,4767.0
53.016442439,4702.0
53.033153708,4871.0
53.049864977,4802.0
53.066576246,4752.0
53.083287515,4776.0
53.099998784,4783.0
53.116710053,4652.0
53.133421322,4731.0
53.150132591,4718.0
53.166843860,4843.0
53.183555129,4711.0
53.200266398,4769.0
53.216977667,4765.0
53.233688936,4792.0
53.250400205,4784.0
53.267111474,4841.0
53.283822743,4655.0
53.300534012,4701.0
53.317245281,4694.0
53.333956550,4795.0
53.350667819,4768.0
53.367379088,4877.0
53.384090357,4732.0
53.400801626,4828.0
53.417512895,4751.0
53.434224164,4806.0
53.450935433,4688.0
53.467646702,4757.0
53.484357971,4825.0
53.501069240,4825.0
53.517780509,4730.0
53.534491778,4716.0
53.551203047,4807.0
53.567914316,4772.0
53.584625585,4767.0
53.601336854,4842.0
53.618048123,4715.0
53.634759391,4670.0
53.651470660,4656.0
53.668181929,4819.0
53.684893198,4663.0
53.701604467,4795.0
53.718315736,4798.0
53.735027005,4686.0
53.751738274,4584.0
53.768449543,4900.0
53.785160812,4784.0
53.801872081,4808.0
53.818583350,4660.0
53.835294619,4830.0
53.852005888,4769.0
53.868717157,4706.0
53.885428426,4691.0
53.902139695,4682.0
53.918850964,4699.0
53.935562233,4618.0
53.952273502,4738.0
53.968984771,4657.0
53.985696040,4746.0
54.002407309,4746.0
54.019118578,4743.0
54.035829847,4676.0
54.052541116,4776.0
54.069252385,4624.0
54.085963654,4815.0
54.102674923,4773.0
54.119386192,4709.0
54.136097461,4722.0
54.152808730,4669.0
54.169519999,4714.0
54.186231268,4759.0
54.202942537,4632.0
54.219653806,4605.0
54.236365075,4723.0
54.253076344,4750.0
54.269787613,4639.0
54.286498882,4626.0
54.303210151,4808.0
54.319921420,4780.0
54.336632689,4916.0
54.353343958,4858.0
54.370055227,4830.0
54.386766496,4738.0
54.403477765,4796.0
54.420189034,4752.0
54.436900303,4716.0
54.453611571,4741.0
54.470322840,4734.0
54.487034109,4924.0
54.503745378,4851.0
54.520456647,4704.0
54.537167916,4829.0
54.553879185,4868.0
54.570590454,4950.0
54.587301723,5005.0
54.604012992,5146.0
54.620724261,5209.0
54.637435530,5050.0
54.654146799,5101.0
54.670858068,4910.0
54.687569337,5035.0
54.704280606,4923.0
54.720991875,4913.0
54.737703144,4866.0
54.754414413,4926.0
54.771125682,4798.0
54.787836951,4820.0
54.804548220,4756.0
54.821259489,4798.0
54.837970758,4742.0
54.854682027,4731.0
54.871393296,4700.0
54.888104565,4731.0
54.904815834,4580.0
54.921527103,4709.0
54.938238372,4682.0
54.954949641,4729.0
54.971660910,4757.0
54.988372179,4615.0
55.005083448,4544.0
55.021794717,4716.0
55.038505986,4659.0
55.055217255,4714.0
55.071928524,4687.0
55.088639793,4794.0
55.105351062,4555.0
55.122062331,4645.0
55.138773600,4738.0
55.155484869,4639.0
55.172196138,4743.0
55.188907407,4710.0
55.205618676,4638.0
55.222329945,4705.0
55.239041214,4694.0
55.255752482,4560.0
55.272463751,4547.0
55.289175020,4545.0
55.305886289,4572.0
55.322597558,4661.0
55.339308827,4654.0
55.356020096,4635.0
55.372731365,4545.0
55.389442634,4533.0
55.406153903,4705.0
55.422865172,4610.0
55.439576441,4721.0
55.456287710,4515.0
55.472998979,4573.0
55.489710248,4536.0
55.506421517,4527.0
55.523132786,4618.0
55.539844055,4571.0
55.556555324,4562.0
55.573266593,4534.0
55.589977862,4649.0
55.606689131,4516.0
55.623400400,4606.0
55.640111669,4604.0
55.656822938,4506.0
55.673534207,4541.0
55.690245476,4654.0
55.706956745,4496.0
55.723668014,4659.0
55.740379283,4600.0
55.757090552,4591.0
55.773801821,4548.0
55.790513090,4594.0
55.807224359,4563.0
55.823935628,4598.0
55.840646897,4646.0
55.857358166,4690.0
55.874069435,4580.0
55.890780704,4540.0
55.907491973,4573.0
55.924203242,4602.0
55.940914511,4758.0
55.957625780,4653.0
55.974337049,4481.0
55.991048318,4549.0
56.007759587,4583.0
56.024470856,4558.0
56.041182125,4601.0
56.057893393,4659.0
56.074604662,4701.0
56.091315931,4597.0
56.108027200,4474.0
56.124738469,4638.0
56.141449738,4452.0
56.158161007,4481.0
56.174872276,4632.0
56.191583545,4490.0
56.208294814,4529.0
56.225006083,4599.0
56.241717352,4562.0
56.258428621,4539.0
56.275139890,4522.0
56.291851159,4592.0
56.308562428,4568.0
56.325273697,4494.0
56.341984966,4577.0
56.358696235,4365.0
56.375407504,4632.0
56.392118773,4603.0
56.408830042,4506.0
56.425541311,4592.0
56.442252580,4600.0
56.458963849,4484.0
56.475675118,4547.0
56.492386387,4522.0
56.509097656,4587.0
56.525808925,4592.0
56.542520194,4442.0
56.559231463,4404.0
56.575942732,4422.0
56.592654001,4487.0
56.609365270,4705.0
56.626076539,4502.0
56.642787808,4469.0
56.659499077,4535.0
56.676210346,4660.0
56.692921615,4444.0
56.709632884,4510.0
56.726344153,4531.0
56.743055422,4566.0
56.759766691,4542.0
56.776477960,4508.0
56.793189229,4588.0
56.809900498,4438.0
56.826611767,4615.0
56.843323036,4656.0
56.860034304,4590.0
56.876745573,4563.0
56.893456842,4638.0
56.910168111,4534.0
56.926879380,4468.0
56.943590649,4596.0
56.960301918,4558.0
56.977013187,4581.0
56.993724456,4503.0
57.010435725,4451.0
57.027146994,4553.0
57.043858263,4431.0
57.060569532,4542.0
57.077280801,4478.0
57.093992070,4564.0
57.110703339,4433.0
57.127414608,4445.0
57.144125877,4523.0
57.160837146,4564.0
57.177548415,4551.0
57.194259684,4484.0
57.210970953,4559.0
57.227682222,4519.0
57.244393491,4409.0
57.261104760,4475.0
57.277816029,4636.0
57.294527298,4545.0
57.311238567,4565.0
57.327949836,4535.0
57.344661105,4535.0
57.361372374,4575.0
57.378083643,4539.0
57.394794912,4463.0
57.411506181,4594.0
57.428217450,4629.0
57.444928719,4559.0
57.461639988,4444.0
57.478351257,4483.0
57.495062526,4405.0
57.511773795,4438.0
57.528485064,4626.0
57.545196333,4540.0
57.561907602,4619.0
57.578618871,4376.0
57.595330140,4548.0
57.612041409,4482.0
57.628752678,4446.0
57.645463947,4446.0
57.662175216,4488.0
57.678886484,4534.0
57.695597753,4501.0
57.712309022,4394.0
57.729020291,4542.0
57.745731560,4612.0
57.762442829,4423.0
57.779154098,4407.0
57.795865367,4400.0
57.812576636,4552.0
57.829287905,4568.0
57.845999174,4544.0
57.862710443,4461.0
57.879421712,4542.0
57.896132981,4639.0
57.912844250,4533.0
57.929555519,4618.0
57.946266788,4579.0
57.962978057,4352.0
57.979689326,4610.0
57.996400595,4477.0
58.013111864,4618.0
58.029823133,4634.0
58.046534402,4511.0
58.063245671,4514.0
58.079956940,4454.0
58.096668209,4458.0
58.113379478,4481.0
58.130090747,4379.0
58.146802016,4421.0
58.163513285,4512.0
58.180224554,4307.0
58.196935823,4393.0
58.213647092,4549.0
58.230358361,4449.0
58.247069630,4547.0
58.263780899,4548.0
58.280492168,4542.0
58.297203437,4446.0
58.313914706,4551.0
58.330625975,4440.0
58.347337244,4464.0
58.364048513,4464.0
58.380759782,4417.0
58.397471051,4374.0
58.414182320,4518.0
58.430893589,4549.0
58.447604858,4459.0
58.464316127,4425.0
58.481027395,4506.0
58.497738664,4466.0
58.514449933,4485.0
58.531161202,4424.0
58.547872471,4482.0
58.564583740,4480.0
58.581295009,4381.0
58.598006278,4489.0
58.614717547,4454.0
58.631428816,4500.0
58.648140085,4564.0
58.664851354,4517.0
58.681562623,4443.0
58.698273892,4531.0
58.714985161,4595.0
58.731696430,4654.0
58.748407699,4445.0
58.765118968,4555.0
58.781830237,4449.0
58.798541506,4507.0
58.815252775,4505.0
58.831964044,4495.0
58.848675313,4412.0
58.865386582,4577.0
58.882097851,4463.0
58.898809120,4391.0
58.915520389,4402.0
58.932231658,4405.0
58.948942927,4502.0
58.965654196,4499.0
58.982365465,4496.0
58.999076734,4352.0
59.015788003,4466.0
59.032499272,4443.0
59.049210541,4533.0
59.065921810,4501.0
59.082633079,4376.0
59.099344348,4420.0
59.116055617,4454.0
59.132766886,4559.0
59.149478155,4487.0
59.166189424,4514.0
59.182900693,4353.0
59.199611962,4372.0
59.216323231,4569.0
59.233034500,4499.0
59.249745769,4394.0
59.266457038,4444.0
59.283168306,4385.0
59.299879575,4464.0
59.316590844,4469.0
59.333302113,4480.0
59.350013382,4362.0
59.366724651,4268.0
59.383435920,4429.0
59.400147189,4475.0
59.416858458,4477.0
59.433569727,4513.0
59.450280996,4590.0
59.466992265,4358.0
59.483703534,4450.0
59.500414803,4430.0
59.517126072,4466.0
59.533837341,4373.0
59.550548610,4459.0
59.567259879,4455.0
59.583971148,4577.0
59.600682417,4482.0
59.617393686,4398.0
59.634104955,4358.0
59.650816224,4492.0
59.667527493,4404.0
59.684238762,4533.0
59.700950031,4455.0
59.717661300,4396.0
59.734372569,4401.0
59.751083838,4441.0
59.767795107,4374.0
59.784506376,4332.0
59.801217645,4328.0
59.817928914,4473.0
59.834640183,4452.0
59.851351452,4395.0
59.868062721,4433.0
59.884773990,4520.0
59.901485259,4501.0
59.918196528,4532.0
59.934907797,4469.0
59.951619066,4423.0
59.968330335,4447.0
59.985041604,4364.0
60.001752873,4390.0
60.018464142,4531.0
60.035175411,4341.0
60.051886680,4407.0
60.068597949,4439.0
60.085309217,4365.0
60.102020486,4454.0
60.118731755,4452.0
60.135443024,4412.0
60.152154293,4486.0
60.168865562,4302.0
60.185576831,4318.0
60.202288100,4485.0
60.218999369,4543.0
60.235710638,4441.0
60.252421907,4444.0
60.269133176,4377.0
60.285844445,4249.0
60.302555714,4353.0
60.319266983,4475.0
60.335978252,4331.0
60.352689521,4533.0
60.369400790,4507.0
60.386112059,4291.0
60.402823328,4526.0
60.419534597,4480.0
60.436245866,4448.0
60.452957135,4463.0
60.469668404,4413.0
60.486379673,4427.0
60.503090942,4457.0
60.519802211,4407.0
60.536513480,4530.0
60.553224749,4381.0
60.569936018,4427.0
60.586647287,4477.0
60.603358556,4383.0
60.620069825,4404.0
60.636781094,4428.0
60.653492363,4444.0
60.670203632,4374.0
60.686914901,4416.0
60.703626170,4388.0
60.720337439,4597.0
60.737048708,4288.0
60.753759977,4450.0
60.770471246,4531.0
60.787182515,4514.0
60.803893784,4499.0
60.820605053,4503.0
60.837316322,4495.0
60.854027591,4315.0
60.870738860,4432.0
60.887450129,4419.0
60.904161397,4572.0
60.920872666,4350.0
60.937583935,4365.0
60.954295204,4491.0
60.971006473,4439.0
60.987717742,4385.0
61.004429011,4437.0
61.021140280,4466.0
61.037851549,4370.0
61.054562818,4409.0
61.071274087,4476.0
61.087985356,4219.0
61.104696625,4298.0
61.121407894,4338.0
61.138119163,4472.0
61.154830432,4459.0
61.171541701,4449.0
61.188252970,4375.0
61.204964239,4434.0
61.221675508,4350.0
61.238386777,4409.0
61.255098046,4339.0
61.271809315,4370.0
61.288520584,4381.0
61.305231853,4258.0
61.321943122,4525.0
61.338654391,4546.0
61.355365660,4397.0
61.372076929,4267.0
61.388788198,4583.0
61.405499467,4325.0
61.422210736,4544.0
61.438922005,4379.0
61.455633274,4448.0
61.472344543,4412.0
61.489055812,4409.0
61.505767081,4410.0
61.522478350,4436.0
61.539189619,4336.0
61.555900888,4504.0
61.572612157,4396.0
61.589323426,4431.0
61.606034695,4440.0
61.622745964,4401.0
61.639457233,4476.0
61.656168502,4433.0
61.672879771,4411.0
61.689591040,4532.0
61.706302308,4428.0
61.723013577,4435.0
61.739724846,4419.0
61.756436115,4361.0
61.773147384,4389.0
61.789858653,4459.0
61.806569922,4490.0
61.823281191,4307.0
61.839992460,4443.0
61.856703729,4459.0
61.873414998,4337.0
61.890126267,4458.0
61.906837536,4343.0
61.923548805,4397.0
61.940260074,4535.0
61.956971343,4347.0
61.973682612,4396.0
61.990393881,4205.0
62.007105150,4383.0
62.023816419,4370.0
62.040527688,4346.0
62.057238957,4387.0
62.073950226,4290.0
62.090661495,4498.0
62.107372764,4393.0
62.124084033,4464.0
62.140795302,4276.0
62.157506571,4447.0
62.174217840,4400.0
62.190929109,4382.0
62.207640378,4390.0
62.224351647,4358.0
62.241062916,4465.0
62.257774185,4555.0
62.274485454,4543.0
62.291196723,4321.0
62.307907992,4427.0
62.324619261,4387.0
62.341330530,4422.0
62.358041799,4366.0
62.374753068,4346.0
62.391464337,4401.0
62.408175606,4328.0
62.424886875,4399.0
62.441598144,4541.0
62.458309413,4453.0
62.475020682,4423.0
62.491731951,4234.0
62.508443219,4413.0
62.525154488,4458.0
62.541865757,4321.0
62.558577026,4501.0
62.575288295,4491.0
62.591999564,4381.0
62.608710833,4528.0
62.625422102,4371.0
62.642133371,4240.0
62.658844640,4361.0
62.675555909,4387.0
62.692267178,4374.0
62.708978447,4335.0
62.725689716,4299.0
62.742400985,4286.0
62.759112254,4381.0
62.775823523,4445.0
62.792534792,4328.0
62.809246061,4386.0
62.825957330,4398.0
62.842668599,4321.0
62.859379868,4325.0
62.876091137,4394.0
62.892802406,4387.0
62.909513675,4434.0
62.926224944,4356.0
62.942936213,4429.0
62.959647482,4385.0
62.976358751,4394.0
62.993070020,4360.0
63.009781289,4479.0
63.026492558,4382.0
63.043203827,4347.0
63.059915096,4390.0
63.076626365,4262.0
63.093337634,4359.0
63.110048903,4338.0
63.126760172,4277.0
63.143471441,4433.0
63.160182710,4300.0
63.176893979,4362.0
63.193605248,4300.0
63.210316517,4302.0
63.227027786,4396.0
63.243739055,4247.0
63.260450324,4312.0
63.277161593,4357.0
63.293872862,4357.0
63.310584130,4383.0
63.327295399,4404.0
63.344006668,4421.0
63.360717937,4378.0
63.377429206,4417.0
63.394140475,4452.0
63.410851744,4452.0
63.427563013,4361.0
63.444274282,4327.0
63.460985551,4432.0
63.477696820,4384.0
63.494408089,4362.0
63.511119358,4273.0
63.527830627,4488.0
63.544541896,4495.0
63.561253165,4467.0
63.577964434,4318.0
63.594675703,4453.0
63.611386972,4495.0
63.628098241,4341.0
63.644809510,4472.0
63.661520779,4363.0
63.678232048,4435.0
63.694943317,4373.0
63.711654586,4428.0
63.728365855,4439.0
63.745077124,4392.0
63.761788393,4355.0
63.778499662,4452.0
63.795210931,4440.0
63.811922200,4418.0
63.828633469,4382.0
63.845344738,4475.0
63.862056007,4426.0
63.878767276,4295.0
63.895478545,4361.0
63.912189814,4315.0
63.928901083,4327.0
63.945612352,4382.0
63.962323621,4403.0
63.979034890,4307.0
63.995746159,4408.0
64.012457428,4484.0
64.029168697,4443.0
64.045879966,4378.0
64.062591235,4283.0
64.079302504,4350.0
64.096013773,4454.0
64.112725041,4446.0
64.129436310,4409.0
64.146147579,4277.0
64.162858848,4369.0
64.179570117,4434.0
64.196281386,4415.0
64.212992655,4378.0
64.229703924,4417.0
64.246415193,4297.0
64.263126462,4456.0
64.279837731,4334.0
64.296549000,4264.0
64.313260269,4419.0
64.329971538,4386.0
64.346682807,4443.0
64.363394076,4365.0
64.380105345,4595.0
64.396816614,4421.0
64.413527883,4352.0
64.430239152,4451.0
64.446950421,4425.0
64.463661690,4453.0
64.480372959,4399.0
64.497084228,4382.0
64.513795497,4400.0
64.530506766,4452.0
64.547218035,4471.0
64.563929304,4477.0
64.580640573,4399.0
64.597351842,4328.0
64.614063111,4393.0
64.630774380,4390.0
64.647485649,4250.0
64.664196918,4517.0
64.680908187,4432.0
64.697619456,4530.0
64.714330725,4330.0
64.731041994,4411.0
64.747753263,4269.0
64.764464532,4498.0
64.781175801,4393.0
64.797887070,4332.0
64.814598339,4317.0
64.831309608,4325.0
64.848020877,4452.0
64.864732146,4413.0
64.881443415,4421.0
64.898154684,4422.0
64.914865953,4585.0
64.931577221,4388.0
64.948288490,4387.0
64.964999759,4324.0
64.981711028,4379.0
64.998422297,4337.0
65.015133566,4323.0
65.031844835,4430.0
65.048556104,4339.0
65.065267373,4379.0
65.081978642,4469.0
65.098689911,4365.0
65.115401180,4389.0
65.132112449,4199.0
65.148823718,4446.0
65.165534987,4300.0
65.182246256,4337.0
65.198957525,4321.0
65.215668794,4451.0
65.232380063,4502.0
65.249091332,4351.0
65.265802601,4449.0
65.282513870,4482.0
65.299225139,4443.0
65.315936408,4588.0
65.332647677,4370.0
65.349358946,4485.0
65.366070215,4416.0
65.382781484,4437.0
65.399492753,4426.0
65.416204022,4412.0
65.432915291,4499.0
65.449626560,4381.0
65.466337829,4319.0
65.483049098,4407.0
65.499760367,4422.0
65.516471636,4438.0
65.533182905,4378.0
65.549894174,4425.0
65.566605443,4310.0
65.583316712,4207.0
65.600027981,4463.0
65.616739250,4364.0
65.633450519,4454.0
65.650161788,4372.0
65.666873057,4413.0
65.683584326,4472.0
65.700295595,4447.0
65.717006864,4409.0
65.733718132,4495.0
65.750429401,4747.0
65.767140670,4522.0
65.783851939,4431.0
65.800563208,4409.0
65.817274477,4465.0
65.833985746,4397.0
65.850697015,4279.0
65.867408284,4284.0
65.884119553,4452.0
65.900830822,4334.0
65.917542091,4390.0
65.934253360,4545.0
65.950964629,4239.0
65.967675898,4364.0
65.984387167,4485.0
66.001098436,4394.0
66.017809705,4350.0
66.034520974,4545.0
66.051232243,4383.0
66.067943512,4425.0
66.084654781,4285.0
66.101366050,4530.0
66.118077319,4311.0
66.134788588,4342.0
66.151499857,4322.0
66.168211126,4274.0
66.184922395,4383.0
66.201633664,4269.0
66.218344933,4375.0
66.235056202,4432.0
66.251767471,4417.0
66.268478740,4492.0
66.285190009,4442.0
66.301901278,4292.0
66.318612547,4423.0
66.335323816,4376.0
66.352035085,4241.0
66.368746354,4355.0
66.385457623,4288.0
66.402168892,4226.0
66.418880161,4348.0
66.435591430,4326.0
66.452302699,4380.0
66.469013968,4438.0
66.485725237,4386.0
66.502436506,4283.0
66.519147775,4468.0
66.535859043,4415.0
66.552570312,4429.0
66.569281581,4329.0
66.585992850,4415.0
66.602704119,4402.0
66.619415388,4347.0
66.636126657,4288.0
66.652837926,4353.0
66.669549195,4258.0
66.686260464,4337.0
66.702971733,4257.0
66.719683002,4390.0
66.736394271,4335.0
66.753105540,4358.0
66.769816809,4390.0
66.786528078,4414.0
66.803239347,4317.0
66.819950616,4467.0
66.836661885,4411.0
66.853373154,4496.0
66.870084423,4516.0
66.886795692,4379.0
66.903506961,4426.0
66.920218230,4306.0
66.936929499,4384.0
66.953640768,4479.0
66.970352037,4532.0
66.987063306,4398.0
67.003774575,4300.0
67.020485844,4361.0
67.037197113,4429.0
67.053908382,4366.0
67.070619651,4301.0
67.087330920,4402.0
67.104042189,4426.0
67.120753458,4420.0
67.137464727,4423.0
67.154175996,4399.0
67.170887265,4459.0
67.187598534,4314.0
67.204309803,4304.0
67.221021072,4366.0
67.237732341,4405.0
67.254443610,4327.0
67.271154879,4305.0
67.287866148,4354.0
67.304577417,4321.0
67.321288686,4290.0
67.337999954,4313.0
67.354711223,4379.0
67.371422492,4482.0
67.388133761,4363.0
67.404845030,4368.0
67.421556299,4407.0
67.438267568,4373.0
67.454978837,4450.0
67.471690106,4490.0
67.488401375,4270.0
67.505112644,4219.0
67.521823913,4416.0
67.538535182,4297.0
67.555246451,4330.0
67.571957720,4351.0
67.588668989,4485.0
67.605380258,4397.0
67.622091527,4434.0
67.638802796,4395.0
67.655514065,4406.0
67.672225334,4433.0
67.688936603,4475.0
67.705647872,4225.0
67.722359141,4374.0
67.739070410,4395.0
67.755781679,4307.0
67.772492948,4491.0
67.789204217,4373.0
67.805915486,4420.0
67.822626755,4448.0
67.839338024,4473.0
67.856049293,4386.0
67.872760562,4428.0
67.889471831,4461.0
67.906183100,4582.0
67.922894369,4582.0
67.939605638,4636.0
67.956316907,4779.0
67.973028176,4737.0
67.989739445,4720.0
68.006450714,4634.0
68.023161983,4579.0
68.039873252,4408.0
68.056584521,4409.0
68.073295790,4330.0
68.090007059,4404.0
68.106718328,4542.0
68.123429597,4613.0
68.140140866,4547.0
68.156852134,4537.0
68.173563403,4547.0
68.190274672,4439.0
68.206985941,4339.0
68.223697210,4418.0
68.240408479,4423.0
68.257119748,4483.0
68.273831017,4246.0
68.290542286,4263.0
68.307253555,4365.0
68.323964824,4455.0
68.340676093,4309.0
68.357387362,4343.0
68.374098631,4289.0
68.390809900,4477.0
68.407521169,4368.0
68.424232438,4411.0
68.440943707,4429.0
68.457654976,4487.0
68.474366245,4387.0
68.491077514,4444.0
68.507788783,4405.0
68.524500052,4263.0
68.541211321,4503.0
68.557922590,4359.0
68.574633859,4313.0
68.591345128,4344.0
68.608056397,4335.0
68.624767666,4317.0
68.641478935,4342.0
68.658190204,4386.0
68.674901473,4372.0
68.691612742,4402.0
68.708324011,4379.0
68.725035280,4406.0
68.741746549,4483.0
68.758457818,4417.0
68.775169087,4351.0
68.791880356,4400.0
68.808591625,4340.0
68.825302894,4353.0
68.842014163,4448.0
68.858725432,4421.0
68.875436701,4417.0
68.892147970,4444.0
68.908859239,4407.0
68.925570508,4316.0
68.942281777,4285.0
68.958993045,4393.0
68.975704314,4335.0
68.992415583,4446.0
69.009126852,4366.0
69.025838121,4360.0
69.042549390,4284.0
69.059260659,4338.0
69.075971928,4431.0
69.092683197,4377.0
69.109394466,4403.0
69.126105735,4342.0
69.142817004,4417.0
69.159528273,4205.0
69.176239542,4366.0
69.192950811,4390.0
69.209662080,4408.0
69.226373349,4449.0
69.243084618,4338.0
69.259795887,4350.0
69.276507156,4443.0
69.293218425,4341.0
69.309929694,4424.0
69.326640963,4358.0
69.343352232,4374.0
69.360063501,4356.0
69.376774770,4292.0
69.393486039,4298.0
69.410197308,4439.0
69.426908577,4338.0
69.443619846,4381.0
69.460331115,4300.0
69.477042384,4458.0
69.493753653,4377.0
69.510464922,4455.0
69.527176191,4421.0
69.543887460,4345.0
69.560598729,4407.0
69.577309998,4422.0
69.594021267,4357.0
69.610732536,4458.0
69.627443805,4418.0
69.644155074,4436.0
69.660866343,4413.0
69.677577612,4223.0
69.694288881,4336.0
69.711000150,4321.0
69.727711419,4392.0
69.744422688,4514.0
69.761133956,4374.0
69.777845225,4309.0
69.794556494,4273.0
69.811267763,4414.0
69.827979032,4273.0
69.844690301,4370.0
69.861401570,4346.0
69.878112839,4326.0
69.894824108,4481.0
69.911535377,4422.0
69.928246646,4427.0
69.944957915,4404.0
69.961669184,4372.0
69.978380453,4347.0
69.995091722,4441.0
70.011802991,4362.0
70.028514260,4329.0
70.045225529,4426.0
70.061936798,4370.0
70.078648067,4400.0
70.095359336,4435.0
70.112070605,4312.0
70.128781874,4494.0
70.145493143,4333.0
70.162204412,4203.0
70.178915681,4418.0
70.195626950,4412.0
70.212338219,4409.0
70.229049488,4358.0
70.245760757,4386.0
70.262472026,4354.0
70.279183295,4394.0
70.295894564,4369.0
70.312605833,4312.0
70.329317102,4387.0
70.346028371,4416.0
70.362739640,4416.0
70.379450909,4346.0
70.396162178,4411.0
70.412873447,4499.0
70.429584716,4381.0
70.446295985,4326.0
70.463007254,4397.0
70.479718523,4375.0
70.496429792,4409.0
70.513141061,4383.0
70.529852330,4280.0
70.546563599,4336.0
70.563274867,4330.0
70.579986136,4377.0
70.596697405,4460.0
70.613408674,4347.0
70.630119943,4294.0
70.646831212,4335.0
70.663542481,4400.0
70.680253750,4487.0
70.696965019,4443.0
70.713676288,4302.0
70.730387557,4446.0
70.747098826,4386.0
70.763810095,4319.0
70.780521364,4408.0
70.797232633,4432.0
70.813943902,4427.0
70.830655171,4467.0
70.847366440,4306.0
70.864077709,4427.0
70.880788978,4541.0
70.897500247,4436.0
70.914211516,4438.0
70.930922785,4440.0
70.947634054,4549.0
70.964345323,4533.0
70.981056592,4425.0
70.997767861,4372.0
71.014479130,4448.0
71.031190399,4482.0
71.047901668,4522.0
71.064612937,4464.0
71.081324206,4519.0
71.098035475,4511.0
71.114746744,4602.0
71.131458013,4522.0
71.148169282,4445.0
71.164880551,4478.0
71.181591820,4456.0
71.198303089,4547.0
71.215014358,4491.0
71.231725627,4461.0
71.248436896,4531.0
71.265148165,4493.0
71.281859434,4512.0
71.298570703,4509.0
71.315281972,4383.0
71.331993241,4578.0
71.348704510,4501.0
71.365415779,4565.0
71.382127047,4496.0
71.398838316,4423.0
71.415549585,4606.0
71.432260854,4536.0
71.448972123,4460.0
71.465683392,4507.0
71.482394661,4460.0
71.499105930,4439.0
71.515817199,4454.0
71.532528468,4405.0
71.549239737,4597.0
71.565951006,4427.0
71.582662275,4412.0
71.599373544,4547.0
71.616084813,4476.0
71.632796082,4503.0
71.649507351,4575.0
71.666218620,4554.0
71.682929889,4549.0
71.699641158,4595.0
71.716352427,4547.0
71.733063696,4493.0
71.749774965,4485.0
71.766486234,4533.0
71.783197503,4549.0
71.799908772,4569.0
71.816620041,4540.0
71.833331310,4498.0
71.850042579,4479.0
71.866753848,4495.0
71.883465117,4531.0
71.900176386,4474.0
71.916887655,4583.0
71.933598924,4540.0
71.950310193,4508.0
71.967021462,4483.0
71.983732731,4410.0
72.000444000,4542.0
72.017155269,4484.0
72.033866538,4625.0
72.050577807,4471.0
72.067289076,4363.0
72.084000345,4485.0
72.100711614,4594.0
72.117422883,4622.0
72.134134152,4541.0
72.150845421,4456.0
72.167556690,4604.0
72.184267958,4496.0
72.200979227,4442.0
72.217690496,4551.0
72.234401765,4471.0
72.251113034,4443.0
72.267824303,4556.0
72.284535572,4504.0
72.301246841,4466.0
72.317958110,4498.0
72.334669379,4513.0
72.351380648,4468.0
72.368091917,4499.0
72.384803186,4569.0
72.401514455,4410.0
72.418225724,4487.0
72.434936993,4473.0
72.451648262,4506.0
72.468359531,4464.0
72.485070800,4444.0
72.501782069,4375.0
72.518493338,4563.0
72.535204607,4548.0
72.551915876,4542.0
72.568627145,4401.0
72.585338414,4530.0
72.602049683,4646.0
72.618760952,4409.0
72.635472221,4504.0
72.652183490,4570.0
72.668894759,4520.0
72.685606028,4592.0
72.702317297,4418.0
72.719028566,4524.0
72.735739835,4591.0
72.752451104,4572.0
72.769162373,4609.0
72.785873642,4674.0
72.802584911,4472.0
72.819296180,4579.0
72.836007449,4429.0
72.852718718,4631.0
72.869429987,4523.0
72.886141256,4586.0
72.902852525,4564.0
72.919563794,4638.0
72.936275063,4640.0
72.952986332,4578.0
72.969697601,4655.0
72.986408869,4637.0
73.003120138,4670.0
73.019831407,4548.0
73.036542676,4551.0
73.053253945,4611.0
73.069965214,4491.0
73.086676483,4640.0
73.103387752,4474.0
73.120099021,4657.0
73.136810290,4605.0
73.153521559,4690.0
73.170232828,4647.0
73.186944097,4630.0
73.203655366,4640.0
73.220366635,4661.0
73.237077904,4704.0
73.253789173,4603.0
73.270500442,4781.0
73.287211711,4727.0
73.303922980,4763.0
73.320634249,4731.0
73.337345518,4805.0
73.354056787,4752.0
73.370768056,4760.0
73.387479325,4891.0
73.404190594,5013.0
73.420901863,4950.0
73.437613132,5087.0
73.454324401,4953.0
73.471035670,5176.0
73.487746939,5337.0
73.504458208,5229.0
73.521169477,5208.0
73.537880746,5383.0
73.554592015,5513.0
73.571303284,5745.0
73.588014553,5594.0
73.604725822,5792.0
73.621437091,5950.0
73.638148360,6155.0
73.654859629,6285.0
73.671570898,6566.0
73.688282167,6731.0
73.704993436,6971.0
73.721704705,7547.0
73.738415974,8295.0
73.755127243,9358.0
73.771838512,11327.0
73.788549780,13999.0
73.805261049,18955.0
73.821972318,27301.0
73.838683587,40284.0
73.855394856,55989.0
73.872106125,66385.0
73.888817394,60663.0
73.905528663,45302.0
73.922239932,30836.0
73.938951201,21330.0
73.955662470,15755.0
73.972373739,13389.0
73.989085008,12283.0
74.005796277,12783.0
74.022507546,14808.0
74.039218815,18548.0
74.055930084,24947.0
74.072641353,31790.0
74.089352622,35003.0
74.106063891,32060.0
74.122775160,24228.0
74.139486429,17731.0
74.156197698,12924.0
74.172908967,10075.0
74.189620236,8365.0
74.206331505,7420.0
74.223042774,6816.0
74.239754043,6396.0
74.256465312,6054.0
74.273176581,5972.0
74.289887850,5724.0
74.306599119,5491.0
74.323310388,5398.0
74.340021657,5189.0
74.356732926,5185.0
74.373444195,5096.0
74.390155464,5168.0
74.406866733,5052.0
74.423578002,4783.0
74.440289271,4884.0
74.457000540,4909.0
74.473711809,4903.0
74.490423078,4785.0
74.507134347,4635.0
74.523845616,4800.0
74.540556885,4721.0
74.557268154,4692.0
74.573979423,4777.0
74.590690692,4679.0
74.607401960,4722.0
74.624113229,4676.0
74.640824498,4695.0
74.657535767,4667.0
74.674247036,4625.0
74.690958305,4620.0
74.707669574,4758.0
74.724380843,4642.0
74.741092112,4567.0
74.757803381,4648.0
74.774514650,4720.0
74.791225919,4611.0
74.807937188,4701.0
74.824648457,4618.0
74.841359726,4711.0
74.858070995,4582.0
74.874782264,4640.0
74.891493533,4481.0
74.908204802,4553.0
74.924916071,4632.0
74.941627340,4623.0
74.958338609,4666.0
74.975049878,4655.0
74.991761147,4651.0
75.008472416,4591.0
75.025183685,4567.0
75.041894954,4521.0
75.058606223,4541.0
75.075317492,4532.0
75.092028761,4481.0
75.108740030,4774.0
75.125451299,4609.0
75.142162568,4482.0
75.158873837,4558.0
75.175585106,4485.0
75.192296375,4439.0
75.209007644,4480.0
75.225718913,4441.0
75.242430182,4528.0
75.259141451,4520.0
75.275852720,4456.0
75.292563989,4410.0
75.309275258,4531.0
75.325986527,4525.0
75.342697796,4497.0
75.359409065,4536.0
75.376120334,4551.0
75.392831603,4531.0
75.409542871,4282.0
75.426254140,4488.0
75.442965409,4503.0
75.459676678,4389.0
75.476387947,4568.0
75.493099216,4401.0
75.509810485,4511.0
75.526521754,4497.0
75.543233023,4496.0
75.559944292,4505.0
75.576655561,4484.0
75.593366830,4481.0
75.610078099,4491.0
75.626789368,4589.0
75.643500637,4415.0
75.660211906,4511.0
75.676923175,4485.0
75.693634444,4396.0
75.710345713,4532.0
75.727056982,4465.0
75.743768251,4429.0
75.760479520,4586.0
75.777190789,4582.0
75.793902058,4562.0
75.810613327,4414.0
75.827324596,4366.0
75.844035865,4455.0
75.860747134,4448.0
75.877458403,4519.0
75.894169672,4508.0
75.910880941,4430.0
75.927592210,4479.0
75.944303479,4580.0
75.961014748,4478.0
75.977726017,4524.0
75.994437286,4429.0
76.011148555,4434.0
76.027859824,4503.0
76.044571093,4239.0
76.061282362,4537.0
76.077993631,4466.0
76.094704900,4359.0
76.111416169,4439.0
76.128127438,4506.0
76.144838707,4309.0
76.161549976,4461.0
76.178261245,4540.0
76.194972514,4370.0
76.211683782,4500.0
76.228395051,4403.0
76.245106320,4436.0
76.261817589,4514.0
76.278528858,4518.0
76.295240127,4310.0
76.311951396,4437.0
76.328662665,4441.0
76.345373934,4504.0
76.362085203,4491.0
76.378796472,4397.0
76.395507741,4387.0
76.412219010,4429.0
76.428930279,4486.0
76.445641548,4359.0
76.462352817,4372.0
76.479064086,4382.0
76.495775355,4403.0
76.512486624,4526.0
76.529197893,4478.0
76.545909162,4522.0
76.562620431,4458.0
76.579331700,4437.0
76.596042969,4469.0
76.612754238,4428.0
76.629465507,4461.0
76.646176776,4449.0
76.662888045,4458.0
76.679599314,4510.0
76.696310583,4414.0
76.713021852,4465.0
76.729733121,4389.0
76.746444390,4473.0
76.763155659,4492.0
76.779866928,4507.0
76.796578197,4365.0
76.813289466,4431.0
76.830000735,4472.0
76.846712004,4429.0
76.863423273,4350.0
76.880134542,4402.0
76.896845811,4503.0
76.913557080,4346.0
76.930268349,4502.0
76.946979618,4431.0
76.963690887,4442.0
76.980402156,4310.0
76.997113425,4428.0
77.013824693,4554.0
77.030535962,4480.0
77.047247231,4487.0
77.063958500,4419.0
77.080669769,4457.0
77.097381038,4399.0
77.114092307,4546.0
77.130803576,4456.0
77.147514845,4457.0
77.164226114,4431.0
77.180937383,4481.0
77.197648652,4442.0
77.214359921,4446.0
77.231071190,4446.0
77.247782459,4378.0
77.264493728,4400.0
77.281204997,4319.0
77.297916266,4451.0
77.314627535,4447.0
77.331338804,4450.0
77.348050073,4343.0
77.364761342,4374.0
77.381472611,4465.0
77.398183880,4487.0
77.414895149,4391.0
77.431606418,4365.0
77.448317687,4383.0
77.465028956,4419.0
77.481740225,4452.0
77.498451494,4471.0
77.515162763,4416.0
77.531874032,4509.0
77.548585301,4428.0
77.565296570,4364.0
77.582007839,4374.0
77.598719108,4527.0
77.615430377,4429.0
77.632141646,4378.0
77.648852915,4545.0
77.665564184,4379.0
77.682275453,4410.0
77.698986722,4426.0
77.715697991,4310.0
77.732409260,4498.0
77.749120529,4400.0
77.765831798,4520.0
77.782543067,4369.0
77.799254336,4420.0
77.815965605,4382.0
77.832676873,4413.0
77.849388142,4439.0
77.866099411,4301.0
77.882810680,4454.0
77.899521949,4366.0
77.916233218,4282.0
77.932944487,4520.0
77.949655756,4530.0
77.966367025,4352.0
77.983078294,4365.0
77.999789563,4348.0
78.016500832,4528.0
78.033212101,4336.0
78.049923370,4388.0
78.066634639,4381.0
78.083345908,4483.0
78.100057177,4446.0
78.116768446,4478.0
78.133479715,4270.0
78.150190984,4463.0
78.166902253,4512.0
78.183613522,4399.0
78.200324791,4407.0
78.217036060,4432.0
78.233747329,4458.0
78.250458598,4429.0
78.267169867,4506.0
78.283881136,4291.0
78.300592405,4413.0
78.317303674,4441.0
78.334014943,4359.0
78.350726212,4406.0
78.367437481,4389.0
78.384148750,4447.0
78.400860019,4353.0
78.417571288,4429.0
78.434282557,4444.0
78.450993826,4364.0
78.467705095,4529.0
78.484416364,4389.0
78.501127633,4449.0
78.517838902,4303.0
78.534550171,4393.0
78.551261440,4398.0
78.567972709,4405.0
78.584683978,4341.0
78.601395247,4464.0
78.618106516,4573.0
78.634817784,4307.0
78.651529053,4469.0
78.668240322,4366.0
78.684951591,4280.0
78.701662860,4310.0
78.718374129,4419.0
78.735085398,4418.0
78.751796667,4344.0
78.768507936,4302.0
78.785219205,4367.0
78.801930474,4392.0
78.818641743,4402.0
78.835353012,4396.0
78.852064281,4393.0
78.868775550,4424.0
78.885486819,4421.0
78.902198088,4448.0
78.918909357,4383.0
78.935620626,4419.0
78.952331895,4437.0
78.969043164,4343.0
78.985754433,4429.0
79.002465702,4455.0
79.019176971,4396.0
79.035888240,4397.0
79.052599509,4395.0
79.069310778,4524.0
79.086022047,4423.0
79.102733316,4601.0
79.119444585,4517.0
79.136155854,4507.0
79.152867123,4450.0
79.169578392,4427.0
79.186289661,4519.0
79.203000930,4424.0
79.219712199,4412.0
79.236423468,4425.0
79.253134737,4356.0
79.269846006,4623.0
79.286557275,4441.0
79.303268544,4387.0
79.319979813,4434.0
79.336691082,4343.0
79.353402351,4384.0
79.370113620,4333.0
79.386824889,4441.0
79.403536158,4346.0
79.420247427,4368.0
79.436958695,4499.0
79.453669964,4358.0
79.470381233,4392.0
79.487092502,4282.0
79.503803771,4512.0
79.520515040,4517.0
79.537226309,4436.0
79.553937578,4395.0
79.570648847,4332.0
79.587360116,4397.0
79.604071385,4560.0
79.620782654,4424.0
79.637493923,4305.0
79.654205192,4268.0
79.670916461,4425.0
79.687627730,4477.0
79.704338999,4428.0
79.721050268,4281.0
79.737761537,4433.0
79.754472806,4426.0
79.771184075,4482.0
79.787895344,4363.0
79.804606613,4507.0
79.821317882,4426.0
79.838029151,4522.0
79.854740420,4378.0
79.871451689,4455.0
79.888162958,4435.0
79.904874227,4307.0
79.921585496,4389.0
79.938296765,4366.0
79.955008034,4364.0
79.971719303,4299.0
79.988430572,4277.0
80.005141841,4322.0
80.021853110,4426.0
80.038564379,4444.0
80.055275648,4494.0
80.071986917,4358.0
80.088698186,4408.0
80.105409455,4451.0
80.122120724,4461.0
80.138831993,4534.0
80.155543262,4643.0
80.172254531,4387.0
80.188965800,4591.0
80.205677069,4360.0
80.222388338,4367.0
80.239099606,4356.0
80.255810875,4332.0
80.272522144,4504.0
80.289233413,4356.0
80.305944682,4432.0
80.322655951,4313.0
80.339367220,4334.0
80.356078489,4377.0
80.372789758,4272.0
80.389501027,4491.0
80.406212296,4428.0
80.422923565,4487.0
80.439634834,4431.0
80.456346103,4293.0
80.473057372,4439.0
80.489768641,4268.0
80.506479910,4409.0
80.523191179,4472.0
80.539902448,4329.0
80.556613717,4445.0
80.573324986,4549.0
80.590036255,4453.0
80.606747524,4387.0
80.623458793,4294.0
80.640170062,4395.0
80.656881331,4390.0
80.673592600,4356.0
80.690303869,4457.0
80.707015138,4361.0
80.723726407,4345.0
80.740437676,4410.0
80.757148945,4380.0
80.773860214,4477.0
80.790571483,4348.0
80.807282752,4503.0
80.823994021,4479.0
80.840705290,4507.0
80.857416559,4383.0
80.874127828,4425.0
80.890839097,4399.0
80.907550366,4461.0
80.924261635,4390.0
80.940972904,4421.0
80.957684173,4376.0
80.974395442,4320.0
80.991106711,4466.0
81.007817980,4502.0
81.024529249,4486.0
81.041240518,4431.0
81.057951786,4479.0
81.074663055,4323.0
81.091374324,4454.0
81.108085593,4382.0
81.124796862,4529.0
81.141508131,4440.0
81.158219400,4411.0
81.174930669,4415.0
81.191641938,4343.0
81.208353207,4426.0
81.225064476,4317.0
81.241775745,4422.0
81.258487014,4284.0
81.275198283,4552.0
81.291909552,4348.0
81.308620821,4342.0
81.325332090,4457.0
81.342043359,4288.0
81.358754628,4344.0
81.375465897,4348.0
81.392177166,4505.0
81.408888435,4424.0
81.425599704,4519.0
81.442310973,4537.0
81.459022242,4515.0
81.475733511,4362.0
81.492444780,4471.0
81.509156049,4449.0
81.525867318,4425.0
81.542578587,4415.0
81.559289856,4364.0
81.576001125,4394.0
81.592712394,4474.0
81.609423663,4462.0
81.626134932,4377.0
81.642846201,4496.0
81.659557470,4363.0
81.676268739,4508.0
81.692980008,4313.0
81.709691277,4343.0
81.726402546,4385.0
81.743113815,4403.0
81.759825084,4290.0
81.776536353,4379.0
81.793247622,4416.0
81.809958891,4423.0
81.826670160,4289.0
81.843381429,4408.0
81.860092697,4398.0
81.876803966,4475.0
81.893515235,4512.0
81.910226504,4544.0
81.926937773,4638.0
81.943649042,4529.0
81.960360311,4718.0
81.977071580,4617.0
81.993782849,4546.0
82.010494118,4645.0
82.027205387,4468.0
82.043916656,4449.0
82.060627925,4498.0
82.077339194,4416.0
82.094050463,4428.0
82.110761732,4517.0
82.127473001,4547.0
82.144184270,4504.0
82.160895539,4492.0
82.177606808,4523.0
82.194318077,4568.0
82.211029346,4465.0
82.227740615,4646.0
82.244451884,4441.0
82.261163153,4592.0
82.277874422,4457.0
82.294585691,4363.0
82.311296960,4508.0
82.328008229,4386.0
82.344719498,4348.0
82.361430767,4450.0
82.378142036,4384.0
82.394853305,4290.0
82.411564574,4462.0
82.428275843,4539.0
82.444987112,4371.0
82.461698381,4374.0
82.478409650,4327.0
82.495120919,4360.0
82.511832188,4414.0
82.528543457,4303.0
82.545254726,4454.0
82.561965995,4412.0
82.578677264,4309.0
82.595388533,4384.0
82.612099802,4511.0
82.628811071,4491.0
82.645522340,4291.0
82.662233608,4435.0
82.678944877,4325.0
82.695656146,4379.0
82.712367415,4558.0
82.729078684,4455.0
82.745789953,4419.0
82.762501222,4303.0
82.779212491,4457.0
82.795923760,4284.0
82.812635029,4357.0
82.829346298,4308.0
82.846057567,4285.0
82.862768836,4281.0
82.879480105,4438.0
82.896191374,4489.0
82.912902643,4304.0
82.929613912,4448.0
82.946325181,4436.0
82.963036450,4386.0
82.979747719,4371.0
82.996458988,4544.0
83.013170257,4360.0
83.029881526,4469.0
83.046592795,4353.0
83.063304064,4370.0
83.080015333,4356.0
83.096726602,4294.0
83.113437871,4292.0
83.130149140,4309.0
83.146860409,4413.0
83.163571678,4410.0
83.180282947,4409.0
83.196994216,4374.0
83.213705485,4400.0
83.230416754,4305.0
83.247128023,4363.0
83.263839292,4405.0
83.280550561,4336.0
83.297261830,4351.0
83.313973099,4496.0
83.330684368,4507.0
83.347395637,4443.0
83.364106906,4381.0
83.380818175,4495.0
83.397529444,4378.0
83.414240713,4388.0
83.430951982,4475.0
83.447663251,4375.0
83.464374519,4448.0
83.481085788,4365.0
83.497797057,4361.0
83.514508326,4336.0
83.531219595,4385.0
83.547930864,4421.0
83.564642133,4347.0
83.581353402,4363.0
83.598064671,4416.0
83.614775940,4469.0
83.631487209,4441.0
83.648198478,4427.0
83.664909747,4283.0
83.681621016,4393.0
83.698332285,4472.0
83.715043554,4371.0
83.731754823,4351.0
83.748466092,4468.0
83.765177361,4336.0
83.781888630,4387.0
83.798599899,4462.0
83.815311168,4274.0
83.832022437,4382.0
83.848733706,4437.0
83.865444975,4279.0
83.882156244,4449.0
83.898867513,4374.0
83.915578782,4438.0
83.932290051,4446.0
83.949001320,4302.0
83.965712589,4385.0
83.982423858,4379.0
83.999135127,4355.0
84.015846396,4392.0
84.032557665,4341.0
84.049268934,4379.0
84.065980203,4319.0
84.082691472,4330.0
84.099402741,4321.0
84.116114010,4358.0
84.132825279,4332.0
84.149536548,4359.0
84.166247817,4348.0
84.182959086,4349.0
84.199670355,4375.0
84.216381624,4361.0
84.233092893,4453.0
84.249804162,4418.0
84.266515431,4329.0
84.283226699,4423.0
84.299937968,4440.0
84.316649237,4240.0
84.333360506,4252.0
84.350071775,4419.0
84.366783044,4399.0
84.383494313,4355.0
84.400205582,4481.0
84.416916851,4588.0
84.433628120,4446.0
84.450339389,4325.0
84.467050658,4381.0
84.483761927,4479.0
84.500473196,4330.0
84.517184465,4345.0
84.533895734,4365.0
84.550607003,4476.0
84.567318272,4441.0
84.584029541,4341.0
84.600740810,4403.0
84.617452079,4470.0
84.634163348,4381.0
84.650874617,4343.0
84.667585886,4304.0
84.684297155,4349.0
84.701008424,4348.0
84.717719693,4441.0
84.734430962,4417.0
84.751142231,4302.0
84.767853500,4358.0
84.784564769,4389.0
84.801276038,4328.0
84.817987307,4467.0
84.834698576,4496.0
84.851409845,4404.0
84.868121114,4379.0
84.884832383,4407.0
84.901543652,4429.0
84.918254921,4420.0
84.934966190,4456.0
84.951677459,4362.0
84.968388728,4194.0
84.985099997,4291.0
85.001811266,4319.0
85.018522535,4440.0
85.035233804,4324.0
85.051945073,4271.0
85.068656342,4390.0
85.085367610,4408.0
85.102078879,4489.0
85.118790148,4427.0
85.135501417,4414.0
85.152212686,4332.0
85.168923955,4441.0
85.185635224,4427.0
85.202346493,4403.0
85.219057762,4358.0
85.235769031,4375.0
85.252480300,4300.0
85.269191569,4461.0
85.285902838,4193.0
85.302614107,4378.0
85.319325376,4460.0
85.336036645,4409.0
85.352747914,4364.0
85.369459183,4178.0
85.386170452,4443.0
85.402881721,4275.0
85.419592990,4313.0
85.436304259,4434.0
85.453015528,4405.0
85.469726797,4403.0
85.486438066,4287.0
85.503149335,4313.0
85.519860604,4337.0
85.536571873,4402.0
85.553283142,4397.0
85.569994411,4223.0
85.586705680,4567.0
85.603416949,4358.0
85.620128218,4384.0
85.636839487,4408.0
85.653550756,4334.0
85.670262025,4339.0
85.686973294,4427.0
85.703684563,4325.0
85.720395832,4366.0
85.737107101,4351.0
85.753818370,4366.0
85.770529639,4282.0
85.787240908,4471.0
85.803952177,4351.0
85.820663446,4468.0
85.837374715,4377.0
85.854085984,4337.0
85.870797253,4318.0
85.887508521,4305.0
85.904219790,4520.0
85.920931059,4487.0
85.937642328,4391.0
85.954353597,4418.0
85.971064866,4502.0
85.987776135,4517.0
86.004487404,4416.0
86.021198673,4317.0
86.037909942,4491.0
86.054621211,4468.0
86.071332480,4447.0
86.088043749,4322.0
86.104755018,4401.0
86.121466287,4356.0
86.138177556,4527.0
86.154888825,4458.0
86.171600094,4531.0
86.188311363,4489.0
86.205022632,4461.0
86.221733901,4501.0
86.238445170,4310.0
86.255156439,4368.0
86.271867708,4471.0
86.288578977,4363.0
86.305290246,4355.0
86.322001515,4516.0
86.338712784,4467.0
86.355424053,4363.0
86.372135322,4388.0
86.388846591,4533.0
86.405557860,4417.0
86.422269129,4409.0
86.438980398,4448.0
86.455691667,4502.0
86.472402936,4417.0
86.489114205,4577.0
86.505825474,4332.0
86.522536743,4380.0
86.539248012,4459.0
86.555959281,4392.0
86.572670550,4443.0
86.589381819,4378.0
86.606093088,4431.0
86.622804357,4481.0
86.639515626,4383.0
86.656226895,4352.0
86.672938164,4435.0
86.689649432,4478.0
86.706360701,4369.0
86.723071970,4364.0
86.739783239,4411.0
86.756494508,4561.0
86.773205777,4453.0
86.789917046,4389.0
86.806628315,4432.0
86.823339584,4408.0
86.840050853,4517.0
86.856762122,4321.0
86.873473391,4423.0
86.890184660,4376.0
86.906895929,4440.0
86.923607198,4361.0
86.940318467,4480.0
86.957029736,4397.0
86.973741005,4469.0
86.990452274,4441.0
87.007163543,4517.0
87.023874812,4414.0
87.040586081,4428.0
87.057297350,4489.0
87.074008619,4475.0
87.090719888,4441.0
87.107431157,4396.0
87.124142426,4458.0
87.140853695,4340.0
87.157564964,4503.0
87.174276233,4461.0
87.190987502,4320.0
87.207698771,4381.0
87.224410040,4504.0
87.241121309,4448.0
87.257832578,4415.0
87.274543847,4499.0
87.291255116,4405.0
87.307966385,4302.0
87.324677654,4421.0
87.341388923,4556.0
87.358100192,4269.0
87.374811461,4393.0
87.391522730,4512.0
87.408233999,4422.0
87.424945268,4395.0
87.441656537,4262.0
87.458367806,4437.0
87.475079075,4403.0
87.491790344,4372.0
87.508501612,4452.0
87.525212881,4406.0
87.541924150,4430.0
87.558635419,4493.0
87.575346688,4328.0
87.592057957,4339.0
87.608769226,4383.0
87.625480495,4403.0
87.642191764,4293.0
87.658903033,4458.0
87.675614302,4457.0
87.692325571,4502.0
87.709036840,4386.0
87.725748109,4465.0
87.742459378,4508.0
87.759170647,4395.0
87.775881916,4602.0
87.792593185,4429.0
87.809304454,4492.0
87.826015723,4339.0
87.842726992,4354.0
87.859438261,4424.0
87.876149530,4376.0
87.892860799,4467.0
87.909572068,4348.0
87.926283337,4478.0
87.942994606,4509.0
87.959705875,4422.0
87.976417144,4496.0
87.993128413,4470.0
88.009839682,4430.0
88.026550951,4383.0
88.043262220,4401.0
88.059973489,4384.0
88.076684758,4464.0
88.093396027,4397.0
88.110107296,4541.0
88.126818565,4403.0
88.143529834,4372.0
88.160241103,4445.0
88.176952372,4370.0
88.193663641,4562.0
88.210374910,4283.0
88.227086179,4393.0
88.243797448,4360.0
88.260508717,4381.0
88.277219986,4341.0
88.293931255,4428.0
88.310642523,4427.0
88.327353792,4528.0
88.344065061,4427.0
88.360776330,4422.0
88.377487599,4443.0
88.394198868,4382.0
88.410910137,4499.0
88.427621406,4404.0
88.444332675,4337.0
88.461043944,4411.0
88.477755213,4509.0
88.494466482,4596.0
88.511177751,4456.0
88.527889020,4386.0
88.544600289,4468.0
88.561311558,4526.0
88.578022827,4493.0
88.594734096,4436.0
88.611445365,4386.0
88.628156634,4349.0
88.644867903,4451.0
88.661579172,4329.0
88.678290441,4539.0
88.695001710,4390.0
88.711712979,4467.0
88.728424248,4498.0
88.745135517,4421.0
88.761846786,4512.0
88.778558055,4538.0
88.795269324,4457.0
88.811980593,4424.0
88.828691862,4473.0
88.845403131,4410.0
88.862114400,4371.0
88.878825669,4520.0
88.895536938,4386.0
88.912248207,4480.0
88.928959476,4486.0
88.945670745,4406.0
88.962382014,4525.0
88.979093283,4562.0
88.995804552,4506.0
89.012515821,4441.0
89.029227090,4376.0
89.045938359,4475.0
89.062649628,4361.0
89.079360897,4469.0
89.096072166,4598.0
89.112783434,4616.0
89.129494703,4638.0
89.146205972,4804.0
89.162917241,4588.0
89.179628510,4727.0
89.196339779,4767.0
89.213051048,4794.0
89.229762317,4734.0
89.246473586,4579.0
89.263184855,4715.0
89.279896124,4734.0
89.296607393,4755.0
89.313318662,4748.0
89.330029931,4805.0
89.346741200,4804.0
89.363452469,4885.0
89.380163738,4947.0
89.396875007,4982.0
89.413586276,5055.0
89.430297545,5265.0
89.447008814,5295.0
89.463720083,5563.0
89.480431352,5639.0
89.497142621,5698.0
89.513853890,5903.0
89.530565159,6548.0
89.547276428,6798.0
89.563987697,7745.0
89.580698966,8748.0
89.597410235,10427.0
89.614121504,12994.0
89.630832773,16218.0
89.647544042,19966.0
89.664255311,22403.0
89.680966580,22219.0
89.697677849,19350.0
89.714389118,15947.0
89.731100387,12792.0
89.747811656,10540.0
89.764522925,8953.0
89.781234194,7973.0
89.797945463,7404.0
89.814656732,7130.0
89.831368001,6938.0
89.848079270,7090.0
89.864790539,7530.0
89.881501808,8396.0
89.898213077,9374.0
89.914924345,10688.0
89.931635614,12245.0
89.948346883,13378.0
89.965058152,13141.0
89.981769421,12035.0
89.998480690,10218.0
90.015191959,8985.0
90.031903228,7669.0
90.048614497,6865.0
90.065325766,6290.0
90.082037035,5857.0
90.098748304,5524.0
90.115459573,5357.0
90.132170842,5113.0
90.148882111,5174.0
90.165593380,4893.0
90.182304649,4861.0
90.199015918,4842.0
90.215727187,4784.0
90.232438456,4652.0
90.249149725,4580.0
90.265860994,4666.0
90.282572263,4692.0
90.299283532,4723.0
90.315994801,4537.0
90.332706070,4529.0
90.349417339,4549.0
90.366128608,4498.0
90.382839877,4571.0
90.399551146,4610.0
90.416262415,4594.0
90.432973684,4432.0
90.449684953,4572.0
90.466396222,4610.0
90.483107491,4513.0
90.499818760,4441.0
90.516530029,4529.0
90.533241298,4602.0
90.549952567,4561.0
90.566663836,4580.0
90.583375105,4472.0
90.600086374,4736.0
90.616797643,4411.0
90.633508912,4528.0
90.650220181,4451.0
90.666931450,4505.0
90.683642719,4443.0
90.700353988,4428.0
90.717065257,4492.0
90.733776525,4521.0
90.750487794,4507.0
90.767199063,4527.0
90.783910332,4503.0
90.800621601,4464.0
90.817332870,4527.0
90.834044139,4316.0
90.850755408,4526.0
90.867466677,4567.0
90.884177946,4447.0
90.900889215,4351.0
90.917600484,4363.0
90.934311753,4440.0
90.951023022,4441.0
90.967734291,4400.0
90.984445560,4475.0
91.001156829,4499.0
91.017868098,4442.0
91.034579367,4436.0
91.051290636,4364.0
91.068001905,4511.0
91.084713174,4537.0
91.101424443,4463.0
91.118135712,4353.0
91.134846981,4519.0
91.151558250,4435.0
91.168269519,4479.0
91.184980788,4222.0
91.201692057,4576.0
91.218403326,4521.0
91.235114595,4528.0
91.251825864,4543.0
91.268537133,4431.0
91.285248402,4459.0
91.301959671,4516.0
91.318670940,4479.0
91.335382209,4605.0
91.352093478,4346.0
91.368804747,4483.0
91.385516016,4485.0
91.402227285,4455.0
91.418938554,4465.0
91.435649823,4383.0
91.452361092,4425.0
91.469072361,4445.0
91.485783630,4441.0
91.502494899,4466.0
91.519206168,4344.0
91.535917436,4512.0
91.552628705,4331.0
91.569339974,4391.0
91.586051243,4467.0
91.602762512,4399.0
91.619473781,4376.0
91.636185050,4431.0
91.652896319,4523.0
91.669607588,4471.0
91.686318857,4403.0
91.703030126,4485.0
91.719741395,4488.0
91.736452664,4386.0
91.753163933,4417.0
91.769875202,4485.0
91.786586471,4505.0
91.803297740,4429.0
91.820009009,4435.0
91.836720278,4477.0
91.853431547,4398.0
91.870142816,4465.0
91.886854085,4363.0
91.903565354,4389.0
91.920276623,4512.0
91.936987892,4518.0
91.953699161,4306.0
91.970410430,4609.0
91.987121699,4432.0
92.003832968,4429.0
92.020544237,4579.0
92.037255506,4354.0
92.053966775,4351.0
92.070678044,4380.0
92.087389313,4394.0
92.104100582,4401.0
92.120811851,4342.0
92.137523120,4325.0
92.154234389,4371.0
92.170945658,4421.0
92.187656927,4469.0
92.204368196,4379.0
92.221079465,4508.0
92.237790734,4514.0
92.254502003,4396.0
92.271213272,4388.0
92.287924541,4492.0
92.304635810,4457.0
92.321347079,4520.0
92.338058347,4251.0
92.354769616,4534.0
92.371480885,4433.0
92.388192154,4384.0
92.404903423,4435.0
92.421614692,4557.0
92.438325961,4560.0
92.455037230,4545.0
92.471748499,4365.0
92.488459768,4472.0
92.505171037,4375.0
92.521882306,4463.0
92.538593575,4352.0
92.555304844,4527.0
92.572016113,4415.0
92.588727382,4542.0
92.605438651,4442.0
92.622149920,4378.0
92.638861189,4418.0
92.655572458,4534.0
92.672283727,4489.0
92.688994996,4395.0
92.705706265,4406.0
92.722417534,4401.0
92.739128803,4258.0
92.755840072,4472.0
92.772551341,4401.0
92.789262610,4360.0
92.805973879,4312.0
92.822685148,4398.0
92.839396417,4488.0
92.856107686,4430.0
92.872818955,4552.0
92.889530224,4355.0
92.906241493,4409.0
92.922952762,4499.0
92.939664031,4489.0
92.956375300,4532.0
92.973086569,4479.0
92.989797838,4484.0
93.006509107,4311.0
93.023220376,4416.0
93.039931645,4307.0
93.056642914,4438.0
93.073354183,4339.0
93.090065452,4475.0
93.106776721,4365.0
93.123487990,4565.0
93.140199258,4406.0
93.156910527,4354.0
93.173621796,4457.0
93.190333065,4461.0
93.207044334,4319.0
93.223755603,4370.0
93.240466872,4525.0
93.257178141,4533.0
93.273889410,4375.0
93.290600679,4520.0
93.307311948,4431.0
93.324023217,4500.0
93.340734486,4437.0
93.357445755,4367.0
93.374157024,4424.0
93.390868293,4393.0
93.407579562,4568.0
93.424290831,4410.0
93.441002100,4427.0
93.457713369,4446.0
93.474424638,4423.0
93.491135907,4461.0
93.507847176,4422.0
93.524558445,4416.0
93.541269714,4474.0
93.557980983,4506.0
93.574692252,4454.0
93.591403521,4447.0
93.608114790,4399.0
93.624826059,4472.0
93.641537328,4394.0
93.658248597,4340.0
93.674959866,4427.0
93.691671135,4345.0
93.708382404,4372.0
93.725093673,4441.0
93.741804942,4562.0
93.758516211,4351.0
93.775227480,4330.0
93.791938749,4502.0
93.808650018,4408.0
93.825361287,4401.0
93.842072556,4438.0
93.858783825,4495.0
93.875495094,4450.0
93.892206363,4432.0
93.908917632,4462.0
93.925628901,4365.0
93.942340170,4543.0
93.959051438,4379.0
93.975762707,4594.0
93.992473976,4485.0
94.009185245,4461.0
94.025896514,4529.0
94.042607783,4456.0
94.059319052,4387.0
94.076030321,4488.0
94.092741590,4580.0
94.109452859,4451.0
94.126164128,4518.0
94.142875397,4475.0
94.159586666,4455.0
94.176297935,4436.0
94.193009204,4534.0
94.209720473,4434.0
94.226431742,4560.0
94.243143011,4531.0
94.259854280,4540.0
94.276565549,4588.0
94.293276818,4682.0
94.309988087,4652.0
94.326699356,4542.0
94.343410625,4577.0
94.360121894,4564.0
94.376833163,4689.0
94.393544432,4623.0
94.410255701,4609.0
94.426966970,4543.0
94.443678239,4695.0
94.460389508,4749.0
94.477100777,4679.0
94.493812046,4819.0
94.510523315,4719.0
94.527234584,4705.0
94.543945853,4704.0
94.560657122,4746.0
94.577368391,4824.0
94.594079660,5052.0
94.610790929,4990.0
94.627502198,5108.0
94.644213467,5147.0
94.660924736,5179.0
94.677636005,5462.0
94.694347274,5420.0
94.711058543,5610.0
94.727769812,5886.0
94.744481081,6350.0
94.761192349,6933.0
94.777903618,7601.0
94.794614887,9009.0
94.811326156,11202.0
94.828037425,14399.0
94.844748694,19254.0
94.861459963,23568.0
94.878171232,25118.0
94.894882501,22236.0
94.911593770,18031.0
94.928305039,14167.0
94.945016308,11111.0
94.961727577,9171.0
94.978438846,7929.0
94.995150115,7013.0
95.011861384,6897.0
95.028572653,6340.0
95.045283922,6447.0
95.061995191,6183.0
95.078706460,6463.0
95.095417729,6708.0
95.112128998,7571.0
95.128840267,8578.0
95.145551536,10416.0
95.162262805,12430.0
95.178974074,14070.0
95.195685343,14373.0
95.212396612,12678.0
95.229107881,10933.0
95.245819150,8773.0
95.262530419,7557.0
95.279241688,6780.0
95.295952957,6078.0
95.312664226,5787.0
95.329375495,5343.0
95.346086764,5209.0
95.362798033,5045.0
95.379509302,4913.0
95.396220571,4858.0
95.412931840,4901.0
95.429643109,4757.0
95.446354378,4639.0
95.463065647,4679.0
95.479776916,4709.0
95.496488185,4574.0
95.513199454,4640.0
95.529910723,4516.0
95.546621992,4555.0
95.563333260,4563.0
95.580044529,4614.0
95.596755798,4663.0
95.613467067,4551.0
95.630178336,4343.0
95.646889605,4587.0
95.663600874,4500.0
95.680312143,4513.0
95.697023412,4409.0
95.713734681,4559.0
95.730445950,4448.0
95.747157219,4415.0
95.763868488,4532.0
95.780579757,4547.0
95.797291026,4495.0
95.814002295,4540.0
95.830713564,4422.0
95.847424833,4416.0
95.864136102,4585.0
95.880847371,4424.0
95.897558640,4510.0
95.914269909,4440.0
95.930981178,4504.0
95.947692447,4429.0
95.964403716,4460.0
95.981114985,4400.0
95.997826254,4591.0
96.014537523,4349.0
96.031248792,4343.0
96.047960061,4481.0
96.064671330,4455.0
96.081382599,4520.0
96.098093868,4374.0
96.114805137,4526.0
96.131516406,4397.0
96.148227675,4391.0
96.164938944,4431.0
96.181650213,4429.0
96.198361482,4393.0
96.215072751,4379.0
96.231784020,4496.0
96.248495289,4339.0
96.265206558,4407.0
96.281917827,4369.0
96.298629096,4419.0
96.315340365,4439.0
96.332051634,4460.0
96.348762903,4495.0
96.365474171,4519.0
96.382185440,4438.0
96.398896709,4467.0
96.415607978,4401.0
96.432319247,4318.0
96.449030516,4430.0
96.465741785,4369.0
96.482453054,4480.0
96.499164323,4528.0
96.515875592,4382.0
96.532586861,4383.0
96.549298130,4507.0
96.566009399,4424.0
96.582720668,4423.0
96.599431937,4428.0
96.616143206,4430.0
96.632854475,4394.0
96.649565744,4283.0
96.666277013,4392.0
96.682988282,4369.0
96.699699551,4312.0
96.716410820,4399.0
96.733122089,4311.0
96.749833358,4390.0
96.766544627,4438.0
96.783255896,4471.0
96.799967165,4415.0
96.816678434,4313.0
96.833389703,4381.0
96.850100972,4338.0
96.866812241,4462.0
96.883523510,4473.0
96.900234779,4388.0
96.916946048,4432.0
96.933657317,4351.0
96.950368586,4436.0
96.967079855,4535.0
96.983791124,4425.0
97.000502393,4346.0
97.017213662,4391.0
97.033924931,4389.0
97.050636200,4266.0
97.067347469,4375.0
97.084058738,4415.0
97.100770007,4383.0
97.117481276,4280.0
97.134192545,4346.0
97.150903814,4410.0
97.167615083,4322.0
97.184326351,4387.0
97.201037620,4303.0
97.217748889,4273.0
97.234460158,4270.0
97.251171427,4418.0
97.267882696,4449.0
97.284593965,4379.0
97.301305234,4313.0
97.318016503,4393.0
97.334727772,4393.0
97.351439041,4280.0
97.368150310,4268.0
97.384861579,4445.0
97.401572848,4313.0
97.418284117,4409.0
97.434995386,4449.0
97.451706655,4400.0
97.468417924,4348.0
97.485129193,4433.0
97.501840462,4380.0
97.518551731,4300.0
97.535263000,4387.0
97.551974269,4363.0
97.568685538,4360.0
97.585396807,4407.0
97.602108076,4363.0
97.618819345,4514.0
97.635530614,4400.0
97.652241883,4402.0
97.668953152,4389.0
97.685664421,4474.0
97.702375690,4373.0
97.719086959,4317.0
97.735798228,4406.0
97.752509497,4390.0
97.769220766,4444.0
97.785932035,4527.0
97.802643304,4394.0
97.819354573,4446.0
97.836065842,4439.0
97.852777111,4342.0
97.869488380,4412.0
97.886199649,4383.0
97.902910918,4270.0
97.919622187,4454.0
97.936333456,4379.0
97.953044725,4399.0
97.969755994,4359.0
97.986467262,4341.0
98.003178531,4414.0
98.019889800,4362.0
98.036601069,4353.0
98.053312338,4428.0
98.070023607,4343.0
98.086734876,4375.0
98.103446145,4393.0
98.120157414,4412.0
98.136868683,4245.0
98.153579952,4408.0
98.170291221,4466.0
98.187002490,4293.0
98.203713759,4385.0
98.220425028,4344.0
98.237136297,4342.0
98.253847566,4516.0
98.270558835,4297.0
98.287270104,4278.0
98.303981373,4257.0
98.320692642,4357.0
98.337403911,4239.0
98.354115180,4368.0
98.370826449,4371.0
98.387537718,4421.0
98.404248987,4338.0
98.420960256,4373.0
98.437671525,4379.0
98.454382794,4310.0
98.471094063,4442.0
98.487805332,4429.0
98.504516601,4392.0
98.521227870,4438.0
98.537939139,4299.0
98.554650408,4285.0
98.571361677,4338.0
98.588072946,4375.0
98.604784215,4254.0
98.621495484,4475.0
98.638206753,4370.0
98.654918022,4459.0
98.671629291,4366.0
98.688340560,4419.0
98.705051829,4334.0
98.721763098,4388.0
98.738474367,4420.0
98.755185636,4366.0
98.771896905,4417.0
98.788608173,4317.0
98.805319442,4487.0
98.822030711,4544.0
98.838741980,4341.0
98.855453249,4311.0
98.872164518,4432.0
98.888875787,4311.0
98.905587056,4365.0
98.922298325,4376.0
98.939009594,4466.0
98.955720863,4522.0
98.972432132,4368.0
98.989143401,4335.0
99.005854670,4350.0
99.022565939,4397.0
99.039277208,4376.0
99.055988477,4515.0
99.072699746,4531.0
99.089411015,4346.0
99.106122284,4431.0
99.122833553,4486.0
99.139544822,4371.0
99.156256091,4357.0
99.172967360,4326.0
99.189678629,4356.0
99.206389898,4309.0
99.223101167,4410.0
99.239812436,4384.0
99.256523705,4358.0
99.273234974,4285.0
99.289946243,4422.0
99.306657512,4306.0
99.323368781,4401.0
99.340080050,4348.0
99.356791319,4492.0
99.373502588,4321.0
99.390213857,4432.0
99.406925126,4382.0
99.423636395,4357.0
99.440347664,4312.0
99.457058933,4401.0
99.473770202,4452.0
99.490481471,4312.0
99.507192740,4336.0
99.523904009,4421.0
99.540615278,4255.0
99.557326547,4239.0
99.574037816,4342.0
99.590749084,4308.0
99.607460353,4462.0
99.624171622,4411.0
99.640882891,4399.0
99.657594160,4418.0
99.674305429,4404.0
99.691016698,4366.0
99.707727967,4522.0
99.724439236,4313.0
99.741150505,4411.0
99.757861774,4343.0
99.774573043,4426.0
99.791284312,4522.0
99.807995581,4329.0
99.824706850,4333.0
99.841418119,4415.0
99.858129388,4365.0
99.874840657,4381.0
99.891551926,4376.0
99.908263195,4337.0
99.924974464,4406.0
99.941685733,4421.0
99.958397002,4443.0
99.975108271,4415.0
99.991819540,4415.0
