[Measurement conditions]
Sample identification,
Comment - 1,"finito"
Comment - 2,"Configuration=MRI TC-Basic Stage, Owner=User-1, Creation date=26-10-2009 9:18:44"
Comment - 3,"Goniometer=PW3050/60 (Theta/Theta); Minimum step size 2Theta:0.001; Minimum step size Omega:0.001"
Comment - 4,"Sample stage=MRI TC-Basic (PtRh heat strip)"
Comment - 5,"Diffractometer system=XPERT-PRO"
Comment - 6,"Measurement program=FlatStage, Owner=joana, Creation date=03-08-2011 15:43:53"
Anode material,Cu
K-Alpha1 wavelength,1.5405980
K-Alpha2 wavelength,1.5444260
Ratio K-Alpha2/K-Alpha1,0.500
Divergence slit,Fixed,0.76mm
Monochromator used,NO
Generator voltage, 45
Tube current, 40
File date and time,06/Dec/2012 19:33
Unit cell,
h k l, 0 0 0
Temperature [K],324
Scan axis,Gonio
Scan range,24.999999996,100.000175174
Scan step size,0.0167113
No. of points, 4488
Scan type,CONTINUOUS
Time per step,53.340
[Scan points]
Angle,Intensity
25.008355630,4645.0
25.025066899,4577.0
25.041778168,4613.0
25.058489437,4656.0
25.075200706,4718.0
25.091911975,4609.0
25.108623244,4490.0
25.125334513,4581.0
25.142045782,4512.0
25.158757051,4559.0
25.175468320,4529.0
25.192179589,4567.0
25.208890858,4653.0
25.225602127,4572.0
25.242313396,4475.0
25.259024665,4581.0
25.275735934,4599.0
25.292447203,4644.0
25.309158472,4547.0
25.325869741,4642.0
25.342581010,4579.0
25.359292279,4673.0
25.376003548,4538.0
25.392714817,4577.0
25.409426086,4483.0
25.426137354,4575.0
25.442848623,4649.0
25.459559892,4677.0
25.476271161,4584.0
25.492982430,4703.0
25.509693699,4500.0
25.526404968,4588.0
25.543116237,4618.0
25.559827506,4544.0
25.576538775,4570.0
25.593250044,4631.0
25.609961313,4553.0
25.626672582,4621.0
25.643383851,4538.0
25.660095120,4510.0
25.676806389,4664.0
25.693517658,4717.0
25.710228927,4622.0
25.726940196,4560.0
25.743651465,4482.0
25.760362734,4413.0
25.777074003,4596.0
25.793785272,4573.0
25.810496541,4567.0
25.827207810,4635.0
25.843919079,4685.0
25.860630348,4527.0
25.877341617,4642.0
25.894052886,4568.0
25.910764155,4516.0
25.927475424,4484.0
25.944186693,4622.0
25.960897962,4602.0
25.977609231,4549.0
25.994320500,4689.0
26.011031769,4554.0
26.027743038,4557.0
26.044454307,4608.0
26.061165576,4566.0
26.077876845,4495.0
26.094588114,4704.0
26.111299383,4456.0
26.128010652,4302.0
26.144721921,4632.0
26.161433190,4475.0
26.178144459,4593.0
26.194855728,4618.0
26.211566997,4430.0
26.228278265,4580.0
26.244989534,4540.0
26.261700803,4528.0
26.278412072,4668.0
26.295123341,4474.0
26.311834610,4617.0
26.328545879,4512.0
26.345257148,4448.0
26.361968417,4598.0
26.378679686,4546.0
26.395390955,4535.0
26.412102224,4396.0
26.428813493,4514.0
26.445524762,4528.0
26.462236031,4555.0
26.478947300,4592.0
26.495658569,4430.0
26.512369838,4557.0
26.529081107,4516.0
26.545792376,4552.0
26.562503645,4570.0
26.579214914,4438.0
26.595926183,4480.0
26.612637452,4633.0
26.629348721,4550.0
26.646059990,4529.0
26.662771259,4460.0
26.679482528,4567.0
26.696193797,4560.0
26.712905066,4512.0
26.729616335,4573.0
26.746327604,4597.0
26.763038873,4563.0
26.779750142,4537.0
26.796461411,4667.0
26.813172680,4497.0
26.829883949,4732.0
26.846595218,4588.0
26.863306487,4441.0
26.880017756,4602.0
26.896729025,4682.0
26.913440294,4561.0
26.930151563,4629.0
26.946862832,4644.0
26.963574101,4588.0
26.980285370,4560.0
26.996996639,4466.0
27.013707908,4493.0
27.030419176,4589.0
27.047130445,4587.0
27.063841714,4513.0
27.080552983,4584.0
27.097264252,4588.0
27.113975521,4651.0
27.130686790,4464.0
27.147398059,4527.0
27.164109328,4569.0
27.180820597,4640.0
27.197531866,4538.0
27.214243135,4476.0
27.230954404,4571.0
27.247665673,4535.0
27.264376942,4597.0
27.281088211,4533.0
27.297799480,4483.0
27.314510749,4453.0
27.331222018,4668.0
27.347933287,4551.0
27.364644556,4433.0
27.381355825,4415.0
27.398067094,4647.0
27.414778363,4441.0
27.431489632,4507.0
27.448200901,4501.0
27.464912170,4480.0
27.481623439,4505.0
27.498334708,4631.0
27.515045977,4639.0
27.531757246,4592.0
27.548468515,4686.0
27.565179784,4595.0
27.581891053,4671.0
27.598602322,4572.0
27.615313591,4485.0
27.632024860,4436.0
27.648736129,4600.0
27.665447398,4531.0
27.682158667,4542.0
27.698869936,4433.0
27.715581205,4473.0
27.732292474,4603.0
27.749003743,4596.0
27.765715012,4661.0
27.782426281,4516.0
27.799137550,4563.0
27.815848819,4750.0
27.832560087,4676.0
27.849271356,4560.0
27.865982625,4573.0
27.882693894,4529.0
27.899405163,4593.0
27.916116432,4660.0
27.932827701,4557.0
27.949538970,4537.0
27.966250239,4440.0
27.982961508,4427.0
27.999672777,4482.0
28.016384046,4645.0
28.033095315,4563.0
28.049806584,4618.0
28.066517853,4506.0
28.083229122,4541.0
28.099940391,4529.0
28.116651660,4493.0
28.133362929,4431.0
28.150074198,4512.0
28.166785467,4552.0
28.183496736,4658.0
28.200208005,4588.0
28.216919274,4560.0
28.233630543,4550.0
28.250341812,4507.0
28.267053081,4557.0
28.283764350,4552.0
28.300475619,4625.0
28.317186888,4565.0
28.333898157,4396.0
28.350609426,4490.0
28.367320695,4592.0
28.384031964,4501.0
28.400743233,4577.0
28.417454502,4640.0
28.434165771,4415.0
28.450877040,4499.0
28.467588309,4499.0
28.484299578,4524.0
28.501010847,4428.0
28.517722116,4511.0
28.534433385,4533.0
28.551144654,4552.0
28.567855923,4559.0
28.584567192,4562.0
28.601278461,4517.0
28.617989730,4411.0
28.634700999,4558.0
28.651412267,4556.0
28.668123536,4599.0
28.684834805,4543.0
28.701546074,4494.0
28.718257343,4489.0
28.734968612,4567.0
28.751679881,4569.0
28.768391150,4604.0
28.785102419,4499.0
28.801813688,4453.0
28.818524957,4543.0
28.835236226,4441.0
28.851947495,4406.0
28.868658764,4506.0
28.885370033,4424.0
28.902081302,4460.0
28.918792571,4585.0
28.935503840,4400.0
28.952215109,4526.0
28.968926378,4492.0
28.985637647,4402.0
29.002348916,4564.0
29.019060185,4540.0
29.035771454,4458.0
29.052482723,4515.0
29.069193992,4430.0
29.085905261,4396.0
29.102616530,4590.0
29.119327799,4386.0
29.136039068,4553.0
29.152750337,4507.0
29.169461606,4542.0
29.186172875,4522.0
29.202884144,4442.0
29.219595413,4496.0
29.236306682,4511.0
29.253017951,4448.0
29.269729220,4586.0
29.286440489,4392.0
29.303151758,4505.0
29.319863027,4558.0
29.336574296,4512.0
29.353285565,4456.0
29.369996834,4564.0
29.386708103,4469.0
29.403419372,4481.0
29.420130641,4498.0
29.436841910,4636.0
29.453553178,4406.0
29.470264447,4643.0
29.486975716,4469.0
29.503686985,4561.0
29.520398254,4566.0
29.537109523,4634.0
29.553820792,4453.0
29.570532061,4429.0
29.587243330,4414.0
29.603954599,4521.0
29.620665868,4463.0
29.637377137,4654.0
29.654088406,4520.0
29.670799675,4475.0
29.687510944,4426.0
29.704222213,4572.0
29.720933482,4495.0
29.737644751,4455.0
29.754356020,4549.0
29.771067289,4515.0
29.787778558,4458.0
29.804489827,4542.0
29.821201096,4454.0
29.837912365,4459.0
29.854623634,4490.0
29.871334903,4480.0
29.888046172,4436.0
29.904757441,4579.0
29.921468710,4422.0
29.938179979,4580.0
29.954891248,4416.0
29.971602517,4427.0
29.988313786,4433.0
30.005025055,4486.0
30.021736324,4470.0
30.038447593,4420.0
30.055158862,4473.0
30.071870131,4496.0
30.088581400,4607.0
30.105292669,4674.0
30.122003938,4423.0
30.138715207,4374.0
30.155426476,4372.0
30.172137745,4408.0
30.188849014,4453.0
30.205560283,4460.0
30.222271552,4384.0
30.238982821,4442.0
30.255694089,4533.0
30.272405358,4450.0
30.289116627,4543.0
30.305827896,4612.0
30.322539165,4457.0
30.339250434,4488.0
30.355961703,4401.0
30.372672972,4461.0
30.389384241,4556.0
30.406095510,4548.0
30.422806779,4573.0
30.439518048,4475.0
30.456229317,4674.0
30.472940586,4441.0
30.489651855,4553.0
30.506363124,4498.0
30.523074393,4309.0
30.539785662,4436.0
30.556496931,4495.0
30.573208200,4494.0
30.589919469,4398.0
30.606630738,4433.0
30.623342007,4525.0
30.640053276,4487.0
30.656764545,4460.0
30.673475814,4462.0
30.690187083,4462.0
30.706898352,4495.0
30.723609621,4544.0
30.740320890,4573.0
30.757032159,4512.0
30.773743428,4495.0
30.790454697,4498.0
30.807165966,4498.0
30.823877235,4341.0
30.840588504,4439.0
30.857299773,4545.0
30.874011042,4494.0
30.890722311,4372.0
30.907433580,4599.0
30.924144849,4484.0
30.940856118,4469.0
30.957567387,4382.0
30.974278656,4504.0
30.990989925,4460.0
31.007701194,4547.0
31.024412463,4431.0
31.041123732,4488.0
31.057835000,4433.0
31.074546269,4515.0
31.091257538,4440.0
31.107968807,4436.0
31.124680076,4471.0
31.141391345,4472.0
31.158102614,4582.0
31.174813883,4491.0
31.191525152,4576.0
31.208236421,4404.0
31.224947690,4433.0
31.241658959,4478.0
31.258370228,4532.0
31.275081497,4467.0
31.291792766,4579.0
31.308504035,4569.0
31.325215304,4488.0
31.341926573,4576.0
31.358637842,4394.0
31.375349111,4405.0
31.392060380,4606.0
31.408771649,4440.0
31.425482918,4516.0
31.442194187,4422.0
31.458905456,4432.0
31.475616725,4462.0
31.492327994,4472.0
31.509039263,4304.0
31.525750532,4403.0
31.542461801,4525.0
31.559173070,4409.0
31.575884339,4454.0
31.592595608,4301.0
31.609306877,4546.0
31.626018146,4423.0
31.642729415,4440.0
31.659440684,4541.0
31.676151953,4490.0
31.692863222,4458.0
31.709574491,4422.0
31.726285760,4399.0
31.742997029,4458.0
31.759708298,4487.0
31.776419567,4459.0
31.793130836,4486.0
31.809842105,4478.0
31.826553374,4512.0
31.843264643,4496.0
31.859975912,4453.0
31.876687180,4458.0
31.893398449,4503.0
31.910109718,4512.0
31.926820987,4450.0
31.943532256,4413.0
31.960243525,4355.0
31.976954794,4555.0
31.993666063,4409.0
32.010377332,4564.0
32.027088601,4513.0
32.043799870,4359.0
32.060511139,4467.0
32.077222408,4461.0
32.093933677,4497.0
32.110644946,4392.0
32.127356215,4622.0
32.144067484,4497.0
32.160778753,4365.0
32.177490022,4430.0
32.194201291,4510.0
32.210912560,4605.0
32.227623829,4555.0
32.244335098,4406.0
32.261046367,4333.0
32.277757636,4447.0
32.294468905,4552.0
32.311180174,4591.0
32.327891443,4443.0
32.344602712,4397.0
32.361313981,4355.0
32.378025250,4446.0
32.394736519,4537.0
32.411447788,4447.0
32.428159057,4516.0
32.444870326,4424.0
32.461581595,4375.0
32.478292864,4508.0
32.495004133,4566.0
32.511715402,4508.0
32.528426671,4614.0
32.545137940,4371.0
32.561849209,4507.0
32.578560478,4545.0
32.595271747,4484.0
32.611983016,4461.0
32.628694285,4358.0
32.645405554,4294.0
32.662116823,4423.0
32.678828091,4589.0
32.695539360,4413.0
32.712250629,4343.0
32.728961898,4369.0
32.745673167,4485.0
32.762384436,4415.0
32.779095705,4507.0
32.795806974,4379.0
32.812518243,4493.0
32.829229512,4345.0
32.845940781,4573.0
32.862652050,4457.0
32.879363319,4393.0
32.896074588,4521.0
32.912785857,4543.0
32.929497126,4467.0
32.946208395,4524.0
32.962919664,4423.0
32.979630933,4446.0
32.996342202,4473.0
33.013053471,4373.0
33.029764740,4550.0
33.046476009,4414.0
33.063187278,4385.0
33.079898547,4488.0
33.096609816,4521.0
33.113321085,4481.0
33.130032354,4493.0
33.146743623,4433.0
33.163454892,4416.0
33.180166161,4349.0
33.196877430,4477.0
33.213588699,4492.0
33.230299968,4492.0
33.247011237,4516.0
33.263722506,4497.0
33.280433775,4549.0
33.297145044,4443.0
33.313856313,4363.0
33.330567582,4544.0
33.347278851,4297.0
33.363990120,4419.0
33.380701389,4479.0
33.397412658,4443.0
33.414123927,4508.0
33.430835196,4415.0
33.447546465,4360.0
33.464257734,4506.0
33.480969002,4346.0
33.497680271,4549.0
33.514391540,4567.0
33.531102809,4404.0
33.547814078,4550.0
33.564525347,4417.0
33.581236616,4573.0
33.597947885,4556.0
33.614659154,4417.0
33.631370423,4649.0
33.648081692,4320.0
33.664792961,4485.0
33.681504230,4490.0
33.698215499,4482.0
33.714926768,4417.0
33.731638037,4479.0
33.748349306,4358.0
33.765060575,4354.0
33.781771844,4335.0
33.798483113,4559.0
33.815194382,4537.0
33.831905651,4448.0
33.848616920,4484.0
33.865328189,4343.0
33.882039458,4432.0
33.898750727,4467.0
33.915461996,4427.0
33.932173265,4619.0
33.948884534,4385.0
33.965595803,4442.0
33.982307072,4473.0
33.999018341,4524.0
34.015729610,4438.0
34.032440879,4433.0
34.049152148,4451.0
34.065863417,4468.0
34.082574686,4587.0
34.099285955,4547.0
34.115997224,4424.0
34.132708493,4454.0
34.149419762,4464.0
34.166131031,4531.0
34.182842300,4437.0
34.199553569,4438.0
34.216264838,4373.0
34.232976107,4440.0
34.249687376,4415.0
34.266398645,4431.0
34.283109913,4506.0
34.299821182,4441.0
34.316532451,4490.0
34.333243720,4496.0
34.349954989,4483.0
34.366666258,4493.0
34.383377527,4462.0
34.400088796,4336.0
34.416800065,4414.0
34.433511334,4439.0
34.450222603,4354.0
34.466933872,4454.0
34.483645141,4591.0
34.500356410,4464.0
34.517067679,4468.0
34.533778948,4433.0
34.550490217,4433.0
34.567201486,4479.0
34.583912755,4387.0
34.600624024,4383.0
34.617335293,4649.0
34.634046562,4367.0
34.650757831,4430.0
34.667469100,4432.0
34.684180369,4420.0
34.700891638,4470.0
34.717602907,4360.0
34.734314176,4599.0
34.751025445,4398.0
34.767736714,4387.0
34.784447983,4541.0
34.801159252,4330.0
34.817870521,4385.0
34.834581790,4485.0
34.851293059,4478.0
34.868004328,4438.0
34.884715597,4575.0
34.901426866,4392.0
34.918138135,4454.0
34.934849404,4396.0
34.951560673,4490.0
34.968271942,4445.0
34.984983211,4394.0
35.001694480,4429.0
35.018405749,4302.0
35.035117018,4434.0
35.051828287,4423.0
35.068539556,4453.0
35.085250825,4474.0
35.101962093,4319.0
35.118673362,4464.0
35.135384631,4496.0
35.152095900,4590.0
35.168807169,4484.0
35.185518438,4444.0
35.202229707,4368.0
35.218940976,4620.0
35.235652245,4464.0
35.252363514,4427.0
35.269074783,4352.0
35.285786052,4420.0
35.302497321,4343.0
35.319208590,4507.0
35.335919859,4525.0
35.352631128,4484.0
35.369342397,4402.0
35.386053666,4493.0
35.402764935,4466.0
35.419476204,4589.0
35.436187473,4527.0
35.452898742,4471.0
35.469610011,4493.0
35.486321280,4447.0
35.503032549,4517.0
35.519743818,4648.0
35.536455087,4470.0
35.553166356,4186.0
35.569877625,4516.0
35.586588894,4447.0
35.603300163,4470.0
35.620011432,4391.0
35.636722701,4503.0
35.653433970,4480.0
35.670145239,4462.0
35.686856508,4365.0
35.703567777,4483.0
35.720279046,4478.0
35.736990315,4313.0
35.753701584,4445.0
35.770412853,4463.0
35.787124122,4375.0
35.803835391,4394.0
35.820546660,4432.0
35.837257929,4353.0
35.853969198,4437.0
35.870680467,4398.0
35.887391736,4424.0
35.904103004,4599.0
35.920814273,4433.0
35.937525542,4339.0
35.954236811,4511.0
35.970948080,4472.0
35.987659349,4474.0
36.004370618,4473.0
36.021081887,4402.0
36.037793156,4550.0
36.054504425,4465.0
36.071215694,4446.0
36.087926963,4441.0
36.104638232,4379.0
36.121349501,4449.0
36.138060770,4396.0
36.154772039,4422.0
36.171483308,4378.0
36.188194577,4509.0
36.204905846,4509.0
36.221617115,4511.0
36.238328384,4434.0
36.255039653,4407.0
36.271750922,4546.0
36.288462191,4334.0
36.305173460,4392.0
36.321884729,4428.0
36.338595998,4575.0
36.355307267,4566.0
36.372018536,4474.0
36.388729805,4438.0
36.405441074,4451.0
36.422152343,4419.0
36.438863612,4475.0
36.455574881,4534.0
36.472286150,4388.0
36.488997419,4411.0
36.505708688,4468.0
36.522419957,4382.0
36.539131226,4348.0
36.555842495,4375.0
36.572553764,4522.0
36.589265033,4432.0
36.605976302,4375.0
36.622687571,4402.0
36.639398840,4345.0
36.656110109,4455.0
36.672821378,4491.0
36.689532647,4425.0
36.706243915,4497.0
36.722955184,4368.0
36.739666453,4550.0
36.756377722,4473.0
36.773088991,4493.0
36.789800260,4467.0
36.806511529,4445.0
36.823222798,4425.0
36.839934067,4440.0
36.856645336,4392.0
36.873356605,4496.0
36.890067874,4492.0
36.906779143,4482.0
36.923490412,4369.0
36.940201681,4477.0
36.956912950,4526.0
36.973624219,4582.0
36.990335488,4584.0
37.007046757,4461.0
37.023758026,4380.0
37.040469295,4576.0
37.057180564,4610.0
37.073891833,4469.0
37.090603102,4468.0
37.107314371,4484.0
37.124025640,4531.0
37.140736909,4358.0
37.157448178,4412.0
37.174159447,4479.0
37.190870716,4422.0
37.207581985,4575.0
37.224293254,4588.0
37.241004523,4401.0
37.257715792,4535.0
37.274427061,4443.0
37.291138330,4565.0
37.307849599,4460.0
37.324560868,4587.0
37.341272137,4298.0
37.357983406,4512.0
37.374694675,4452.0
37.391405944,4489.0
37.408117213,4395.0
37.424828482,4625.0
37.441539751,4464.0
37.458251020,4523.0
37.474962289,4567.0
37.491673558,4470.0
37.508384826,4612.0
37.525096095,4563.0
37.541807364,4483.0
37.558518633,4535.0
37.575229902,4488.0
37.591941171,4656.0
37.608652440,4526.0
37.625363709,4419.0
37.642074978,4533.0
37.658786247,4556.0
37.675497516,4456.0
37.692208785,4560.0
37.708920054,4555.0
37.725631323,4435.0
37.742342592,4521.0
37.759053861,4578.0
37.775765130,4556.0
37.792476399,4462.0
37.809187668,4544.0
37.825898937,4506.0
37.842610206,4518.0
37.859321475,4414.0
37.876032744,4522.0
37.892744013,4596.0
37.909455282,4538.0
37.926166551,4499.0
37.942877820,4382.0
37.959589089,4523.0
37.976300358,4546.0
37.993011627,4543.0
38.009722896,4402.0
38.026434165,4515.0
38.043145434,4445.0
38.059856703,4633.0
38.076567972,4519.0
38.093279241,4515.0
38.109990510,4440.0
38.126701779,4570.0
38.143413048,4484.0
38.160124317,4553.0
38.176835586,4518.0
38.193546855,4461.0
38.210258124,4472.0
38.226969393,4545.0
38.243680662,4604.0
38.260391931,4463.0
38.277103200,4572.0
38.293814469,4634.0
38.310525738,4472.0
38.327237006,4419.0
38.343948275,4466.0
38.360659544,4705.0
38.377370813,4542.0
38.394082082,4592.0
38.410793351,4509.0
38.427504620,4536.0
38.444215889,4617.0
38.460927158,4568.0
38.477638427,4490.0
38.494349696,4568.0
38.511060965,4459.0
38.527772234,4602.0
38.544483503,4542.0
38.561194772,4561.0
38.577906041,4569.0
38.594617310,4528.0
38.611328579,4612.0
38.628039848,4718.0
38.644751117,4575.0
38.661462386,4571.0
38.678173655,4620.0
38.694884924,4728.0
38.711596193,4815.0
38.728307462,4957.0
38.745018731,5165.0
38.761730000,5388.0
38.778441269,5735.0
38.795152538,5483.0
38.811863807,5354.0
38.828575076,4900.0
38.845286345,4665.0
38.861997614,4582.0
38.878708883,4774.0
38.895420152,4529.0
38.912131421,4532.0
38.928842690,4580.0
38.945553959,4537.0
38.962265228,4569.0
38.978976497,4695.0
38.995687766,4427.0
39.012399035,4568.0
39.029110304,4659.0
39.045821573,4699.0
39.062532842,4706.0
39.079244111,4549.0
39.095955380,4650.0
39.112666649,4567.0
39.129377917,4589.0
39.146089186,4447.0
39.162800455,4644.0
39.179511724,4636.0
39.196222993,4637.0
39.212934262,4574.0
39.229645531,4570.0
39.246356800,4532.0
39.263068069,4531.0
39.279779338,4545.0
39.296490607,4548.0
39.313201876,4489.0
39.329913145,4580.0
39.346624414,4568.0
39.363335683,4551.0
39.380046952,4620.0
39.396758221,4569.0
39.413469490,4585.0
39.430180759,4580.0
39.446892028,4460.0
39.463603297,4533.0
39.480314566,4655.0
39.497025835,4790.0
39.513737104,4565.0
39.530448373,4587.0
39.547159642,4612.0
39.563870911,4656.0
39.580582180,4581.0
39.597293449,4587.0
39.614004718,4560.0
39.630715987,4569.0
39.647427256,4607.0
39.664138525,4509.0
39.680849794,4519.0
39.697561063,4529.0
39.714272332,4606.0
39.730983601,4581.0
39.747694870,4547.0
39.764406139,4557.0
39.781117408,4636.0
39.797828677,4577.0
39.814539946,4534.0
39.831251215,4575.0
39.847962484,4570.0
39.864673753,4558.0
39.881385022,4474.0
39.898096291,4459.0
39.914807560,4586.0
39.931518828,4481.0
39.948230097,4591.0
39.964941366,4499.0
39.981652635,4628.0
39.998363904,4350.0
40.015075173,4537.0
40.031786442,4503.0
40.048497711,4516.0
40.065208980,4462.0
40.081920249,4463.0
40.098631518,4594.0
40.115342787,4588.0
40.132054056,4503.0
40.148765325,4486.0
40.165476594,4512.0
40.182187863,4570.0
40.198899132,4566.0
40.215610401,4583.0
40.232321670,4570.0
40.249032939,4486.0
40.265744208,4532.0
40.282455477,4633.0
40.299166746,4460.0
40.315878015,4411.0
40.332589284,4604.0
40.349300553,4562.0
40.366011822,4496.0
40.382723091,4542.0
40.399434360,4428.0
40.416145629,4583.0
40.432856898,4574.0
40.449568167,4613.0
40.466279436,4698.0
40.482990705,4588.0
40.499701974,4656.0
40.516413243,4612.0
40.533124512,4612.0
40.549835781,4615.0
40.566547050,4532.0
40.583258319,4569.0
40.599969588,4498.0
40.616680857,4505.0
40.633392126,4519.0
40.650103395,4661.0
40.666814664,4480.0
40.683525933,4671.0
40.700237202,4572.0
40.716948471,4627.0
40.733659739,4483.0
40.750371008,4535.0
40.767082277,4418.0
40.783793546,4588.0
40.800504815,4526.0
40.817216084,4407.0
40.833927353,4566.0
40.850638622,4527.0
40.867349891,4642.0
40.884061160,4538.0
40.900772429,4653.0
40.917483698,4478.0
40.934194967,4503.0
40.950906236,4536.0
40.967617505,4553.0
40.984328774,4508.0
41.001040043,4501.0
41.017751312,4408.0
41.034462581,4673.0
41.051173850,4419.0
41.067885119,4501.0
41.084596388,4434.0
41.101307657,4697.0
41.118018926,4662.0
41.134730195,4555.0
41.151441464,4664.0
41.168152733,4448.0
41.184864002,4567.0
41.201575271,4438.0
41.218286540,4581.0
41.234997809,4589.0
41.251709078,4604.0
41.268420347,4593.0
41.285131616,4683.0
41.301842885,4575.0
41.318554154,4624.0
41.335265423,4676.0
41.351976692,4621.0
41.368687961,4621.0
41.385399230,4642.0
41.402110499,4697.0
41.418821768,4552.0
41.435533037,4622.0
41.452244306,4651.0
41.468955575,4758.0
41.485666844,4513.0
41.502378113,4656.0
41.519089382,4737.0
41.535800651,4772.0
41.552511919,4993.0
41.569223188,5072.0
41.585934457,5339.0
41.602645726,5460.0
41.619356995,5454.0
41.636068264,5350.0
41.652779533,5552.0
41.669490802,5353.0
41.686202071,5471.0
41.702913340,5387.0
41.719624609,5290.0
41.736335878,5590.0
41.753047147,5555.0
41.769758416,5439.0
41.786469685,5396.0
41.803180954,5491.0
41.819892223,5452.0
41.836603492,5495.0
41.853314761,5577.0
41.870026030,5431.0
41.886737299,5284.0
41.903448568,5468.0
41.920159837,5410.0
41.936871106,5620.0
41.953582375,5511.0
41.970293644,5400.0
41.987004913,5510.0
42.003716182,5417.0
42.020427451,5418.0
42.037138720,5494.0
42.053849989,5596.0
42.070561258,5588.0
42.087272527,5633.0
42.103983796,5617.0
42.120695065,5471.0
42.137406334,5700.0
42.154117603,5713.0
42.170828872,5695.0
42.187540141,5842.0
42.204251410,5946.0
42.220962679,5780.0
42.237673948,5886.0
42.254385217,5627.0
42.271096486,5729.0
42.287807755,5688.0
42.304519024,5627.0
42.321230293,5488.0
42.337941562,5601.0
42.354652830,5649.0
42.371364099,5529.0
42.388075368,5775.0
42.404786637,5680.0
42.421497906,5717.0
42.438209175,5727.0
42.454920444,5820.0
42.471631713,5851.0
42.488342982,5779.0
42.505054251,5866.0
42.521765520,5740.0
42.538476789,5810.0
42.555188058,5849.0
42.571899327,6054.0
42.588610596,6043.0
42.605321865,6015.0
42.622033134,6115.0
42.638744403,6108.0
42.655455672,6326.0
42.672166941,6397.0
42.688878210,6415.0
42.705589479,6451.0
42.722300748,6736.0
42.739012017,6865.0
42.755723286,7063.0
42.772434555,7328.0
42.789145824,7979.0
42.805857093,8484.0
42.822568362,9428.0
42.839279631,10545.0
42.855990900,11714.0
42.872702169,12482.0
42.889413438,13746.0
42.906124707,14672.0
42.922835976,16624.0
42.939547245,17946.0
42.956258514,19482.0
42.972969783,21116.0
42.989681052,23896.0
43.006392321,28770.0
43.023103590,37312.0
43.039814859,50867.0
43.056526128,73241.0
43.073237397,110109.0
43.089948666,175394.0
43.106659935,288425.0
43.123371204,432862.0
43.140082473,468725.0
43.156793741,329958.0
43.173505010,187909.0
43.190216279,127463.0
43.206927548,132503.0
43.223638817,180198.0
43.240350086,237428.0
43.257061355,228342.0
43.273772624,148319.0
43.290483893,78539.0
43.307195162,42845.0
43.323906431,29164.0
43.340617700,22185.0
43.357328969,18134.0
43.374040238,15693.0
43.390751507,13713.0
43.407462776,12182.0
43.424174045,11474.0
43.440885314,10572.0
43.457596583,9705.0
43.474307852,8940.0
43.491019121,8492.0
43.507730390,7977.0
43.524441659,7541.0
43.541152928,7384.0
43.557864197,7094.0
43.574575466,6966.0
43.591286735,6868.0
43.607998004,6771.0
43.624709273,6606.0
43.641420542,6566.0
43.658131811,6444.0
43.674843080,6405.0
43.691554349,6240.0
43.708265618,6434.0
43.724976887,6088.0
43.741688156,6083.0
43.758399425,6064.0
43.775110694,6012.0
43.791821963,6037.0
43.808533232,5921.0
43.825244501,5983.0
43.841955770,5870.0
43.858667039,5809.0
43.875378308,5802.0
43.892089577,5731.0
43.908800846,5720.0
43.925512115,5593.0
43.942223384,5590.0
43.958934652,5739.0
43.975645921,5785.0
43.992357190,5674.0
44.009068459,5691.0
44.025779728,5620.0
44.042490997,5584.0
44.059202266,5475.0
44.075913535,5603.0
44.092624804,5611.0
44.109336073,5505.0
44.126047342,5464.0
44.142758611,5299.0
44.159469880,5376.0
44.176181149,5439.0
44.192892418,5435.0
44.209603687,5515.0
44.226314956,5532.0
44.243026225,5365.0
44.259737494,5282.0
44.276448763,5400.0
44.293160032,5330.0
44.309871301,5322.0
44.326582570,5338.0
44.343293839,5335.0
44.360005108,5368.0
44.376716377,5196.0
44.393427646,5331.0
44.410138915,5255.0
44.426850184,5177.0
44.443561453,5229.0
44.460272722,5326.0
44.476983991,5261.0
44.493695260,5276.0
44.510406529,5123.0
44.527117798,5320.0
44.543829067,5223.0
44.560540336,5278.0
44.577251605,5333.0
44.593962874,5194.0
44.610674143,5270.0
44.627385412,5240.0
44.644096681,5205.0
44.660807950,5187.0
44.677519219,5223.0
44.694230488,5205.0
44.710941757,5420.0
44.727653026,5132.0
44.744364295,5188.0
44.761075564,5157.0
44.777786832,5111.0
44.794498101,5180.0
44.811209370,5186.0
44.827920639,5217.0
44.844631908,5039.0
44.861343177,5175.0
44.878054446,5200.0
44.894765715,5097.0
44.911476984,5234.0
44.928188253,5276.0
44.944899522,5141.0
44.961610791,5211.0
44.978322060,5043.0
44.995033329,5141.0
45.011744598,5103.0
45.028455867,5359.0
45.045167136,5355.0
45.061878405,5401.0
45.078589674,5538.0
45.095300943,5725.0
45.112012212,5918.0
45.128723481,5919.0
45.145434750,5755.0
45.162146019,5427.0
45.178857288,5271.0
45.195568557,5282.0
45.212279826,5102.0
45.228991095,5199.0
45.245702364,5097.0
45.262413633,5111.0
45.279124902,5011.0
45.295836171,5105.0
45.312547440,5201.0
45.329258709,5018.0
45.345969978,5065.0
45.362681247,4948.0
45.379392516,5112.0
45.396103785,4959.0
45.412815054,5095.0
45.429526323,5087.0
45.446237592,4954.0
45.462948861,4892.0
45.479660130,5050.0
45.496371399,5118.0
45.513082668,5056.0
45.529793937,4960.0
45.546505206,5147.0
45.563216475,5011.0
45.579927743,5031.0
45.596639012,4973.0
45.613350281,5110.0
45.630061550,4976.0
45.646772819,5057.0
45.663484088,5064.0
45.680195357,5015.0
45.696906626,5046.0
45.713617895,4975.0
45.730329164,4985.0
45.747040433,4983.0
45.763751702,5061.0
45.780462971,4952.0
45.797174240,4946.0
45.813885509,5078.0
45.830596778,4926.0
45.847308047,5023.0
45.864019316,4971.0
45.880730585,5088.0
45.897441854,4895.0
45.914153123,4917.0
45.930864392,4980.0
45.947575661,4970.0
45.964286930,4966.0
45.980998199,4943.0
45.997709468,4856.0
46.014420737,4947.0
46.031132006,5020.0
46.047843275,4997.0
46.064554544,4970.0
46.081265813,4993.0
46.097977082,4935.0
46.114688351,5038.0
46.131399620,4908.0
46.148110889,4976.0
46.164822158,4860.0
46.181533427,4935.0
46.198244696,4906.0
46.214955965,4887.0
46.231667234,4831.0
46.248378503,4814.0
46.265089772,5014.0
46.281801041,4923.0
46.298512310,4917.0
46.315223579,4922.0
46.331934848,4824.0
46.348646117,4928.0
46.365357386,4941.0
46.382068654,5030.0
46.398779923,4887.0
46.415491192,5032.0
46.432202461,4968.0
46.448913730,5018.0
46.465624999,5045.0
46.482336268,5207.0
46.499047537,5072.0
46.515758806,5204.0
46.532470075,5076.0
46.549181344,4973.0
46.565892613,5107.0
46.582603882,5018.0
46.599315151,5308.0
46.616026420,5236.0
46.632737689,5158.0
46.649448958,5040.0
46.666160227,5135.0
46.682871496,4934.0
46.699582765,4912.0
46.716294034,4969.0
46.733005303,5013.0
46.749716572,4956.0
46.766427841,4969.0
46.783139110,4946.0
46.799850379,4982.0
46.816561648,5047.0
46.833272917,5124.0
46.849984186,5445.0
46.866695455,5337.0
46.883406724,5397.0
46.900117993,5272.0
46.916829262,5250.0
46.933540531,5195.0
46.950251800,5320.0
46.966963069,5269.0
46.983674338,5399.0
47.000385607,5104.0
47.017096876,4985.0
47.033808145,5049.0
47.050519414,4898.0
47.067230683,4961.0
47.083941952,4892.0
47.100653221,4887.0
47.117364490,4836.0
47.134075759,4888.0
47.150787028,4902.0
47.167498297,4841.0
47.184209565,4913.0
47.200920834,4906.0
47.217632103,5008.0
47.234343372,4877.0
47.251054641,4722.0
47.267765910,4770.0
47.284477179,4884.0
47.301188448,4676.0
47.317899717,4944.0
47.334610986,4732.0
47.351322255,4885.0
47.368033524,4775.0
47.384744793,4630.0
47.401456062,4908.0
47.418167331,4919.0
47.434878600,4741.0
47.451589869,4839.0
47.468301138,4923.0
47.485012407,4833.0
47.501723676,4845.0
47.518434945,4773.0
47.535146214,4810.0
47.551857483,4853.0
47.568568752,4790.0
47.585280021,4737.0
47.601991290,4766.0
47.618702559,4744.0
47.635413828,4765.0
47.652125097,4803.0
47.668836366,4799.0
47.685547635,4780.0
47.702258904,4817.0
47.718970173,4781.0
47.735681442,4742.0
47.752392711,4849.0
47.769103980,4763.0
47.785815249,4809.0
47.802526518,4839.0
47.819237787,4811.0
47.835949056,4675.0
47.852660325,4746.0
47.869371594,4762.0
47.886082863,4759.0
47.902794132,4941.0
47.919505401,4782.0
47.936216670,4683.0
47.952927939,4863.0
47.969639208,4856.0
47.986350477,4811.0
48.003061745,4795.0
48.019773014,4709.0
48.036484283,4699.0
48.053195552,4803.0
48.069906821,4814.0
48.086618090,4739.0
48.103329359,4859.0
48.120040628,4729.0
48.136751897,4727.0
48.153463166,4771.0
48.170174435,4836.0
48.186885704,4853.0
48.203596973,4765.0
48.220308242,4881.0
48.237019511,4769.0
48.253730780,4698.0
48.270442049,4647.0
48.287153318,4897.0
48.303864587,4788.0
48.320575856,4833.0
48.337287125,4721.0
48.353998394,4780.0
48.370709663,4728.0
48.387420932,4964.0
48.404132201,4996.0
48.420843470,5248.0
48.437554739,5350.0
48.454266008,5324.0
48.470977277,5515.0
48.487688546,5476.0
48.504399815,5341.0
48.521111084,5485.0
48.537822353,5385.0
48.554533622,5410.0
48.571244891,5458.0
48.587956160,5448.0
48.604667429,5310.0
48.621378698,5302.0
48.638089967,5352.0
48.654801236,5434.0
48.671512505,5390.0
48.688223774,5652.0
48.704935043,5483.0
48.721646312,5447.0
48.738357581,5451.0
48.755068850,5384.0
48.771780119,5347.0
48.788491388,5263.0
48.805202656,5320.0
48.821913925,5468.0
48.838625194,5388.0
48.855336463,5396.0
48.872047732,5496.0
48.888759001,5474.0
48.905470270,5234.0
48.922181539,5403.0
48.938892808,5446.0
48.955604077,5467.0
48.972315346,5226.0
48.989026615,5393.0
49.005737884,5451.0
49.022449153,5351.0
49.039160422,5526.0
49.055871691,5524.0
49.072582960,5690.0
49.089294229,5660.0
49.106005498,5725.0
49.122716767,5660.0
49.139428036,5673.0
49.156139305,5651.0
49.172850574,5639.0
49.189561843,5393.0
49.206273112,5435.0
49.222984381,5462.0
49.239695650,5556.0
49.256406919,5334.0
49.273118188,5485.0
49.289829457,5500.0
49.306540726,5707.0
49.323251995,5467.0
49.339963264,5454.0
49.356674533,5420.0
49.373385802,5516.0
49.390097071,5520.0
49.406808340,5414.0
49.423519609,5551.0
49.440230878,5710.0
49.456942147,5427.0
49.473653416,5625.0
49.490364685,5683.0
49.507075954,5668.0
49.523787223,5719.0
49.540498492,5731.0
49.557209761,5806.0
49.573921030,5798.0
49.590632299,5656.0
49.607343567,5674.0
49.624054836,5828.0
49.640766105,5806.0
49.657477374,5781.0
49.674188643,5764.0
49.690899912,5945.0
49.707611181,6003.0
49.724322450,6065.0
49.741033719,6054.0
49.757744988,6116.0
49.774456257,6238.0
49.791167526,6410.0
49.807878795,6327.0
49.824590064,6550.0
49.841301333,6694.0
49.858012602,6812.0
49.874723871,7116.0
49.891435140,7380.0
49.908146409,7443.0
49.924857678,8200.0
49.941568947,9100.0
49.958280216,10002.0
49.974991485,11049.0
49.991702754,12234.0
50.008414023,13555.0
50.025125292,14413.0
50.041836561,15330.0
50.058547830,15776.0
50.075259099,16857.0
50.091970368,18177.0
50.108681637,20329.0
50.125392906,23315.0
50.142104175,28698.0
50.158815444,36879.0
50.175526713,50584.0
50.192237982,73347.0
50.208949251,110154.0
50.225660520,169264.0
50.242371789,256881.0
50.259083058,346467.0
50.275794327,353321.0
50.292505596,264682.0
50.309216865,166998.0
50.325928134,112301.0
50.342639403,97376.0
50.359350672,111470.0
50.376061941,144488.0
50.392773210,181572.0
50.409484478,184210.0
50.426195747,139586.0
50.442907016,87485.0
50.459618285,52878.0
50.476329554,34393.0
50.493040823,25070.0
50.509752092,19295.0
50.526463361,16382.0
50.543174630,14306.0
50.559885899,12529.0
50.576597168,11596.0
50.593308437,10613.0
50.610019706,9889.0
50.626730975,8972.0
50.643442244,8463.0
50.660153513,7892.0
50.676864782,7627.0
50.693576051,7072.0
50.710287320,7006.0
50.726998589,7062.0
50.743709858,6737.0
50.760421127,6685.0
50.777132396,6490.0
50.793843665,6208.0
50.810554934,6358.0
50.827266203,6127.0
50.843977472,6115.0
50.860688741,5955.0
50.877400010,5888.0
50.894111279,5996.0
50.910822548,5854.0
50.927533817,5770.0
50.944245086,5931.0
50.960956355,5736.0
50.977667624,5744.0
50.994378893,5607.0
51.011090162,5602.0
51.027801431,5802.0
51.044512700,5512.0
51.061223969,5531.0
51.077935238,5524.0
51.094646507,5572.0
51.111357776,5508.0
51.128069045,5423.0
51.144780314,5335.0
51.161491583,5374.0
51.178202852,5494.0
51.194914121,5317.0
51.211625390,5255.0
51.228336658,5387.0
51.245047927,5451.0
51.261759196,5301.0
51.278470465,5310.0
51.295181734,5139.0
51.311893003,5340.0
51.328604272,5334.0
51.345315541,5159.0
51.362026810,5260.0
51.378738079,5298.0
51.395449348,5218.0
51.412160617,5144.0
51.428871886,5227.0
51.445583155,5047.0
51.462294424,5196.0
51.479005693,5259.0
51.495716962,5047.0
51.512428231,5088.0
51.529139500,5081.0
51.545850769,5003.0
51.562562038,5078.0
51.579273307,5082.0
51.595984576,5110.0
51.612695845,5197.0
51.629407114,5124.0
51.646118383,5111.0
51.662829652,5003.0
51.679540921,5116.0
51.696252190,4928.0
51.712963459,4940.0
51.729674728,5082.0
51.746385997,4837.0
51.763097266,5088.0
51.779808535,5048.0
51.796519804,5166.0
51.813231073,4970.0
51.829942342,5094.0
51.846653611,5021.0
51.863364880,4998.0
51.880076149,5017.0
51.896787418,4920.0
51.913498687,4918.0
51.930209956,4864.0
51.946921225,4978.0
51.963632494,5167.0
51.980343763,5045.0
51.997055032,5025.0
52.013766301,5004.0
52.030477569,4893.0
52.047188838,5061.0
52.063900107,5035.0
52.080611376,4974.0
52.097322645,5002.0
52.114033914,4875.0
52.130745183,4955.0
52.147456452,4977.0
52.164167721,5011.0
52.180878990,4945.0
52.197590259,4814.0
52.214301528,4945.0
52.231012797,4902.0
52.247724066,4934.0
52.264435335,4804.0
52.281146604,4915.0
52.297857873,4855.0
52.314569142,5002.0
52.331280411,4860.0
52.347991680,5027.0
52.364702949,4887.0
52.381414218,4915.0
52.398125487,4901.0
52.414836756,4823.0
52.431548025,4890.0
52.448259294,4844.0
52.464970563,4719.0
52.481681832,4852.0
52.498393101,4877.0
52.515104370,4929.0
52.531815639,4845.0
52.548526908,4736.0
52.565238177,4772.0
52.581949446,4854.0
52.598660715,4761.0
52.615371984,4969.0
52.632083253,4841.0
52.648794522,4854.0
52.665505791,4743.0
52.682217060,4745.0
52.698928329,4826.0
52.715639598,4785.0
52.732350867,4816.0
52.749062136,4827.0
52.765773405,4826.0
52.782484674,4842.0
52.799195943,4828.0
52.815907212,4828.0
52.832618480,4907.0
52.849329749,4777.0
52.866041018,4875.0
52.882752287,4749.0
52.899463556,4793.0
52.916174825,4731.0
52.932886094,4731.0
52.949597363,4659.0
52.966308632,4716.0
52.983019901,4929.0
52.999731170,4777.0
53.016442439,4673.0
53.033153708,4790.0
53.049864977,4895.0
53.066576246,4729.0
53.083287515,4726.0
53.099998784,4833.0
53.116710053,4834.0
53.133421322,4757.0
53.150132591,4759.0
53.166843860,4724.0
53.183555129,4752.0
53.200266398,4659.0
53.216977667,4610.0
53.233688936,4732.0
53.250400205,4717.0
53.267111474,4695.0
53.283822743,4738.0
53.300534012,4734.0
53.317245281,4779.0
53.333956550,4717.0
53.350667819,4764.0
53.367379088,4770.0
53.384090357,4763.0
53.400801626,4847.0
53.417512895,4636.0
53.434224164,4708.0
53.450935433,4811.0
53.467646702,4722.0
53.484357971,4789.0
53.501069240,4842.0
53.517780509,4779.0
53.534491778,4812.0
53.551203047,4729.0
53.567914316,4733.0
53.584625585,4791.0
53.601336854,4637.0
53.618048123,4804.0
53.634759391,4692.0
53.651470660,4792.0
53.668181929,4708.0
53.684893198,4711.0
53.701604467,4786.0
53.718315736,4844.0
53.735027005,4788.0
53.751738274,4559.0
53.768449543,4667.0
53.785160812,4797.0
53.801872081,4699.0
53.818583350,4663.0
53.835294619,4585.0
53.852005888,4726.0
53.868717157,4721.0
53.885428426,4735.0
53.902139695,4810.0
53.918850964,4684.0
53.935562233,4619.0
53.952273502,4515.0
53.968984771,4706.0
53.985696040,4737.0
54.002407309,4826.0
54.019118578,4659.0
54.035829847,4781.0
54.052541116,4679.0
54.069252385,4626.0
54.085963654,4724.0
54.102674923,4746.0
54.119386192,4529.0
54.136097461,4697.0
54.152808730,4723.0
54.169519999,4650.0
54.186231268,4664.0
54.202942537,4694.0
54.219653806,4676.0
54.236365075,4622.0
54.253076344,4767.0
54.269787613,4654.0
54.286498882,4880.0
54.303210151,4763.0
54.319921420,4793.0
54.336632689,4806.0
54.353343958,4625.0
54.370055227,4874.0
54.386766496,4899.0
54.403477765,4786.0
54.420189034,4817.0
54.436900303,4714.0
54.453611571,4831.0
54.470322840,4727.0
54.487034109,4760.0
54.503745378,4841.0
54.520456647,4660.0
54.537167916,4782.0
54.553879185,4763.0
54.570590454,4864.0
54.587301723,4784.0
54.604012992,4820.0
54.620724261,4852.0
54.637435530,5088.0
54.654146799,5156.0
54.670858068,5100.0
54.687569337,5061.0
54.704280606,5009.0
54.720991875,4896.0
54.737703144,4854.0
54.754414413,4846.0
54.771125682,4898.0
54.787836951,4996.0
54.804548220,4936.0
54.821259489,4799.0
54.837970758,4825.0
54.854682027,4735.0
54.871393296,4719.0
54.888104565,4686.0
54.904815834,4672.0
54.921527103,4592.0
54.938238372,4697.0
54.954949641,4608.0
54.971660910,4765.0
54.988372179,4622.0
55.005083448,4549.0
55.021794717,4656.0
55.038505986,4525.0
55.055217255,4656.0
55.071928524,4679.0
55.088639793,4628.0
55.105351062,4672.0
55.122062331,4742.0
55.138773600,4639.0
55.155484869,4774.0
55.172196138,4594.0
55.188907407,4662.0
55.205618676,4678.0
55.222329945,4609.0
55.239041214,4606.0
55.255752482,4626.0
55.272463751,4658.0
55.289175020,4535.0
55.305886289,4526.0
55.322597558,4604.0
55.339308827,4568.0
55.356020096,4537.0
55.372731365,4554.0
55.389442634,4615.0
55.406153903,4510.0
55.422865172,4654.0
55.439576441,4607.0
55.456287710,4588.0
55.472998979,4675.0
55.489710248,4553.0
55.506421517,4591.0
55.523132786,4605.0
55.539844055,4510.0
55.556555324,4572.0
55.573266593,4623.0
55.589977862,4678.0
55.606689131,4608.0
55.623400400,4542.0
55.640111669,4583.0
55.656822938,4697.0
55.673534207,4621.0
55.690245476,4523.0
55.706956745,4525.0
55.723668014,4630.0
55.740379283,4635.0
55.757090552,4550.0
55.773801821,4534.0
55.790513090,4547.0
55.807224359,4579.0
55.823935628,4562.0
55.840646897,4561.0
55.857358166,4598.0
55.874069435,4701.0
55.890780704,4665.0
55.907491973,4466.0
55.924203242,4601.0
55.940914511,4427.0
55.957625780,4626.0
55.974337049,4648.0
55.991048318,4491.0
56.007759587,4525.0
56.024470856,4538.0
56.041182125,4635.0
56.057893393,4623.0
56.074604662,4533.0
56.091315931,4607.0
56.108027200,4650.0
56.124738469,4424.0
56.141449738,4567.0
56.158161007,4484.0
56.174872276,4510.0
56.191583545,4537.0
56.208294814,4572.0
56.225006083,4577.0
56.241717352,4593.0
56.258428621,4485.0
56.275139890,4542.0
56.291851159,4508.0
56.308562428,4443.0
56.325273697,4591.0
56.341984966,4443.0
56.358696235,4644.0
56.375407504,4532.0
56.392118773,4525.0
56.408830042,4613.0
56.425541311,4513.0
56.442252580,4535.0
56.458963849,4722.0
56.475675118,4542.0
56.492386387,4576.0
56.509097656,4617.0
56.525808925,4553.0
56.542520194,4670.0
56.559231463,4513.0
56.575942732,4675.0
56.592654001,4444.0
56.609365270,4582.0
56.626076539,4515.0
56.642787808,4499.0
56.659499077,4403.0
56.676210346,4550.0
56.692921615,4363.0
56.709632884,4498.0
56.726344153,4438.0
56.743055422,4511.0
56.759766691,4601.0
56.776477960,4559.0
56.793189229,4492.0
56.809900498,4603.0
56.826611767,4511.0
56.843323036,4496.0
56.860034304,4480.0
56.876745573,4510.0
56.893456842,4403.0
56.910168111,4540.0
56.926879380,4561.0
56.943590649,4443.0
56.960301918,4427.0
56.977013187,4556.0
56.993724456,4585.0
57.010435725,4603.0
57.027146994,4443.0
57.043858263,4391.0
57.060569532,4570.0
57.077280801,4373.0
57.093992070,4543.0
57.110703339,4368.0
57.127414608,4514.0
57.144125877,4441.0
57.160837146,4538.0
57.177548415,4525.0
57.194259684,4557.0
57.210970953,4510.0
57.227682222,4558.0
57.244393491,4388.0
57.261104760,4537.0
57.277816029,4531.0
57.294527298,4426.0
57.311238567,4447.0
57.327949836,4517.0
57.344661105,4547.0
57.361372374,4592.0
57.378083643,4508.0
57.394794912,4491.0
57.411506181,4469.0
57.428217450,4453.0
57.444928719,4485.0
57.461639988,4591.0
57.478351257,4535.0
57.495062526,4563.0
57.511773795,4585.0
57.528485064,4417.0
57.545196333,4477.0
57.561907602,4391.0
57.578618871,4552.0
57.595330140,4666.0
57.612041409,4552.0
57.628752678,4556.0
57.645463947,4577.0
57.662175216,4427.0
57.678886484,4458.0
57.695597753,4524.0
57.712309022,4529.0
57.729020291,4599.0
57.745731560,4430.0
57.762442829,4494.0
57.779154098,4521.0
57.795865367,4434.0
57.812576636,4529.0
57.829287905,4382.0
57.845999174,4534.0
57.862710443,4561.0
57.879421712,4557.0
57.896132981,4571.0
57.912844250,4469.0
57.929555519,4435.0
57.946266788,4466.0
57.962978057,4435.0
57.979689326,4572.0
57.996400595,4486.0
58.013111864,4422.0
58.029823133,4483.0
58.046534402,4463.0
58.063245671,4453.0
58.079956940,4486.0
58.096668209,4447.0
58.113379478,4464.0
58.130090747,4463.0
58.146802016,4459.0
58.163513285,4394.0
58.180224554,4444.0
58.196935823,4461.0
58.213647092,4508.0
58.230358361,4567.0
58.247069630,4507.0
58.263780899,4369.0
58.280492168,4467.0
58.297203437,4496.0
58.313914706,4557.0
58.330625975,4491.0
58.347337244,4494.0
58.364048513,4630.0
58.380759782,4524.0
58.397471051,4486.0
58.414182320,4479.0
58.430893589,4487.0
58.447604858,4463.0
58.464316127,4537.0
58.481027395,4486.0
58.497738664,4482.0
58.514449933,4521.0
58.531161202,4536.0
58.547872471,4493.0
58.564583740,4565.0
58.581295009,4404.0
58.598006278,4404.0
58.614717547,4473.0
58.631428816,4367.0
58.648140085,4463.0
58.664851354,4439.0
58.681562623,4354.0
58.698273892,4465.0
58.714985161,4379.0
58.731696430,4431.0
58.748407699,4350.0
58.765118968,4617.0
58.781830237,4509.0
58.798541506,4464.0
58.815252775,4401.0
58.831964044,4470.0
58.848675313,4500.0
58.865386582,4454.0
58.882097851,4432.0
58.898809120,4426.0
58.915520389,4448.0
58.932231658,4354.0
58.948942927,4432.0
58.965654196,4454.0
58.982365465,4450.0
58.999076734,4462.0
59.015788003,4417.0
59.032499272,4479.0
59.049210541,4487.0
59.065921810,4421.0
59.082633079,4459.0
59.099344348,4473.0
59.116055617,4354.0
59.132766886,4392.0
59.149478155,4395.0
59.166189424,4496.0
59.182900693,4484.0
59.199611962,4481.0
59.216323231,4405.0
59.233034500,4425.0
59.249745769,4480.0
59.266457038,4452.0
59.283168306,4440.0
59.299879575,4416.0
59.316590844,4505.0
59.333302113,4491.0
59.350013382,4328.0
59.366724651,4511.0
59.383435920,4318.0
59.400147189,4452.0
59.416858458,4496.0
59.433569727,4333.0
59.450280996,4455.0
59.466992265,4460.0
59.483703534,4476.0
59.500414803,4277.0
59.517126072,4330.0
59.533837341,4457.0
59.550548610,4372.0
59.567259879,4431.0
59.583971148,4391.0
59.600682417,4581.0
59.617393686,4324.0
59.634104955,4361.0
59.650816224,4358.0
59.667527493,4390.0
59.684238762,4468.0
59.700950031,4395.0
59.717661300,4437.0
59.734372569,4400.0
59.751083838,4533.0
59.767795107,4398.0
59.784506376,4515.0
59.801217645,4388.0
59.817928914,4326.0
59.834640183,4368.0
59.851351452,4459.0
59.868062721,4360.0
59.884773990,4347.0
59.901485259,4407.0
59.918196528,4347.0
59.934907797,4405.0
59.951619066,4355.0
59.968330335,4498.0
59.985041604,4275.0
60.001752873,4357.0
60.018464142,4343.0
60.035175411,4281.0
60.051886680,4472.0
60.068597949,4443.0
60.085309217,4575.0
60.102020486,4448.0
60.118731755,4439.0
60.135443024,4412.0
60.152154293,4459.0
60.168865562,4436.0
60.185576831,4525.0
60.202288100,4347.0
60.218999369,4464.0
60.235710638,4443.0
60.252421907,4458.0
60.269133176,4548.0
60.285844445,4427.0
60.302555714,4508.0
60.319266983,4350.0
60.335978252,4510.0
60.352689521,4377.0
60.369400790,4356.0
60.386112059,4422.0
60.402823328,4287.0
60.419534597,4537.0
60.436245866,4454.0
60.452957135,4423.0
60.469668404,4290.0
60.486379673,4350.0
60.503090942,4378.0
60.519802211,4445.0
60.536513480,4326.0
60.553224749,4366.0
60.569936018,4433.0
60.586647287,4544.0
60.603358556,4444.0
60.620069825,4432.0
60.636781094,4458.0
60.653492363,4407.0
60.670203632,4439.0
60.686914901,4291.0
60.703626170,4461.0
60.720337439,4339.0
60.737048708,4414.0
60.753759977,4450.0
60.770471246,4382.0
60.787182515,4605.0
60.803893784,4491.0
60.820605053,4321.0
60.837316322,4476.0
60.854027591,4567.0
60.870738860,4379.0
60.887450129,4395.0
60.904161397,4350.0
60.920872666,4415.0
60.937583935,4365.0
60.954295204,4529.0
60.971006473,4398.0
60.987717742,4258.0
61.004429011,4395.0
61.021140280,4468.0
61.037851549,4370.0
61.054562818,4305.0
61.071274087,4449.0
61.087985356,4380.0
61.104696625,4351.0
61.121407894,4466.0
61.138119163,4462.0
61.154830432,4451.0
61.171541701,4372.0
61.188252970,4308.0
61.204964239,4434.0
61.221675508,4345.0
61.238386777,4363.0
61.255098046,4373.0
61.271809315,4268.0
61.288520584,4451.0
61.305231853,4476.0
61.321943122,4404.0
61.338654391,4434.0
61.355365660,4456.0
61.372076929,4538.0
61.388788198,4427.0
61.405499467,4333.0
61.422210736,4382.0
61.438922005,4220.0
61.455633274,4309.0
61.472344543,4398.0
61.489055812,4349.0
61.505767081,4364.0
61.522478350,4368.0
61.539189619,4360.0
61.555900888,4451.0
61.572612157,4443.0
61.589323426,4361.0
61.606034695,4414.0
61.622745964,4448.0
61.639457233,4502.0
61.656168502,4433.0
61.672879771,4482.0
61.689591040,4423.0
61.706302308,4434.0
61.723013577,4330.0
61.739724846,4448.0
61.756436115,4481.0
61.773147384,4291.0
61.789858653,4333.0
61.806569922,4428.0
61.823281191,4469.0
61.839992460,4328.0
61.856703729,4400.0
61.873414998,4428.0
61.890126267,4347.0
61.906837536,4288.0
61.923548805,4447.0
61.940260074,4501.0
61.956971343,4407.0
61.973682612,4450.0
61.990393881,4377.0
62.007105150,4371.0
62.023816419,4538.0
62.040527688,4445.0
62.057238957,4362.0
62.073950226,4250.0
62.090661495,4271.0
62.107372764,4418.0
62.124084033,4482.0
62.140795302,4433.0
62.157506571,4431.0
62.174217840,4268.0
62.190929109,4482.0
62.207640378,4448.0
62.224351647,4377.0
62.241062916,4389.0
62.257774185,4276.0
62.274485454,4333.0
62.291196723,4473.0
62.307907992,4376.0
62.324619261,4424.0
62.341330530,4480.0
62.358041799,4413.0
62.374753068,4521.0
62.391464337,4438.0
62.408175606,4389.0
62.424886875,4493.0
62.441598144,4395.0
62.458309413,4412.0
62.475020682,4550.0
62.491731951,4300.0
62.508443219,4260.0
62.525154488,4494.0
62.541865757,4347.0
62.558577026,4484.0
62.575288295,4410.0
62.591999564,4333.0
62.608710833,4331.0
62.625422102,4395.0
62.642133371,4355.0
62.658844640,4382.0
62.675555909,4347.0
62.692267178,4403.0
62.708978447,4385.0
62.725689716,4393.0
62.742400985,4422.0
62.759112254,4448.0
62.775823523,4445.0
62.792534792,4393.0
62.809246061,4408.0
62.825957330,4380.0
62.842668599,4380.0
62.859379868,4353.0
62.876091137,4239.0
62.892802406,4402.0
62.909513675,4437.0
62.926224944,4382.0
62.942936213,4515.0
62.959647482,4416.0
62.976358751,4470.0
62.993070020,4433.0
63.009781289,4454.0
63.026492558,4441.0
63.043203827,4387.0
63.059915096,4463.0
63.076626365,4248.0
63.093337634,4452.0
63.110048903,4388.0
63.126760172,4483.0
63.143471441,4280.0
63.160182710,4409.0
63.176893979,4228.0
63.193605248,4377.0
63.210316517,4348.0
63.227027786,4373.0
63.243739055,4316.0
63.260450324,4432.0
63.277161593,4386.0
63.293872862,4481.0
63.310584130,4384.0
63.327295399,4360.0
63.344006668,4515.0
63.360717937,4385.0
63.377429206,4235.0
63.394140475,4356.0
63.410851744,4499.0
63.427563013,4440.0
63.444274282,4320.0
63.460985551,4514.0
63.477696820,4332.0
63.494408089,4357.0
63.511119358,4439.0
63.527830627,4484.0
63.544541896,4340.0
63.561253165,4525.0
63.577964434,4522.0
63.594675703,4423.0
63.611386972,4399.0
63.628098241,4235.0
63.644809510,4424.0
63.661520779,4470.0
63.678232048,4274.0
63.694943317,4335.0
63.711654586,4416.0
63.728365855,4348.0
63.745077124,4440.0
63.761788393,4457.0
63.778499662,4432.0
63.795210931,4313.0
63.811922200,4308.0
63.828633469,4401.0
63.845344738,4336.0
63.862056007,4283.0
63.878767276,4265.0
63.895478545,4421.0
63.912189814,4488.0
63.928901083,4385.0
63.945612352,4532.0
63.962323621,4360.0
63.979034890,4414.0
63.995746159,4406.0
64.012457428,4411.0
64.029168697,4488.0
64.045879966,4466.0
64.062591235,4280.0
64.079302504,4443.0
64.096013773,4331.0
64.112725041,4344.0
64.129436310,4441.0
64.146147579,4371.0
64.162858848,4325.0
64.179570117,4443.0
64.196281386,4415.0
64.212992655,4356.0
64.229703924,4377.0
64.246415193,4333.0
64.263126462,4346.0
64.279837731,4329.0
64.296549000,4229.0
64.313260269,4396.0
64.329971538,4434.0
64.346682807,4396.0
64.363394076,4283.0
64.380105345,4366.0
64.396816614,4379.0
64.413527883,4358.0
64.430239152,4385.0
64.446950421,4395.0
64.463661690,4362.0
64.480372959,4413.0
64.497084228,4416.0
64.513795497,4448.0
64.530506766,4311.0
64.547218035,4374.0
64.563929304,4306.0
64.580640573,4383.0
64.597351842,4466.0
64.614063111,4321.0
64.630774380,4392.0
64.647485649,4362.0
64.664196918,4499.0
64.680908187,4406.0
64.697619456,4347.0
64.714330725,4426.0
64.731041994,4403.0
64.747753263,4413.0
64.764464532,4327.0
64.781175801,4433.0
64.797887070,4374.0
64.814598339,4382.0
64.831309608,4367.0
64.848020877,4496.0
64.864732146,4300.0
64.881443415,4435.0
64.898154684,4342.0
64.914865953,4340.0
64.931577221,4418.0
64.948288490,4314.0
64.964999759,4404.0
64.981711028,4444.0
64.998422297,4415.0
65.015133566,4279.0
65.031844835,4409.0
65.048556104,4352.0
65.065267373,4401.0
65.081978642,4373.0
65.098689911,4437.0
65.115401180,4405.0
65.132112449,4359.0
65.148823718,4459.0
65.165534987,4330.0
65.182246256,4237.0
65.198957525,4258.0
65.215668794,4305.0
65.232380063,4353.0
65.249091332,4399.0
65.265802601,4251.0
65.282513870,4362.0
65.299225139,4366.0
65.315936408,4395.0
65.332647677,4318.0
65.349358946,4339.0
65.366070215,4397.0
65.382781484,4329.0
65.399492753,4317.0
65.416204022,4454.0
65.432915291,4272.0
65.449626560,4425.0
65.466337829,4412.0
65.483049098,4380.0
65.499760367,4326.0
65.516471636,4446.0
65.533182905,4319.0
65.549894174,4330.0
65.566605443,4515.0
65.583316712,4359.0
65.600027981,4260.0
65.616739250,4300.0
65.633450519,4445.0
65.650161788,4415.0
65.666873057,4367.0
65.683584326,4343.0
65.700295595,4440.0
65.717006864,4392.0
65.733718132,4428.0
65.750429401,4409.0
65.767140670,4529.0
65.783851939,4539.0
65.800563208,4477.0
65.817274477,4491.0
65.833985746,4567.0
65.850697015,4583.0
65.867408284,4468.0
65.884119553,4514.0
65.900830822,4274.0
65.917542091,4562.0
65.934253360,4295.0
65.950964629,4351.0
65.967675898,4372.0
65.984387167,4418.0
66.001098436,4391.0
66.017809705,4440.0
66.034520974,4437.0
66.051232243,4410.0
66.067943512,4328.0
66.084654781,4345.0
66.101366050,4459.0
66.118077319,4427.0
66.134788588,4299.0
66.151499857,4367.0
66.168211126,4432.0
66.184922395,4440.0
66.201633664,4543.0
66.218344933,4359.0
66.235056202,4345.0
66.251767471,4498.0
66.268478740,4406.0
66.285190009,4346.0
66.301901278,4483.0
66.318612547,4307.0
66.335323816,4346.0
66.352035085,4391.0
66.368746354,4352.0
66.385457623,4440.0
66.402168892,4388.0
66.418880161,4429.0
66.435591430,4393.0
66.452302699,4269.0
66.469013968,4339.0
66.485725237,4453.0
66.502436506,4397.0
66.519147775,4382.0
66.535859043,4407.0
66.552570312,4407.0
66.569281581,4385.0
66.585992850,4433.0
66.602704119,4199.0
66.619415388,4286.0
66.636126657,4263.0
66.652837926,4223.0
66.669549195,4462.0
66.686260464,4352.0
66.702971733,4411.0
66.719683002,4446.0
66.736394271,4424.0
66.753105540,4446.0
66.769816809,4330.0
66.786528078,4346.0
66.803239347,4374.0
66.819950616,4341.0
66.836661885,4377.0
66.853373154,4379.0
66.870084423,4369.0
66.886795692,4325.0
66.903506961,4325.0
66.920218230,4510.0
66.936929499,4280.0
66.953640768,4302.0
66.970352037,4443.0
66.987063306,4229.0
67.003774575,4326.0
67.020485844,4273.0
67.037197113,4355.0
67.053908382,4376.0
67.070619651,4318.0
67.087330920,4320.0
67.104042189,4212.0
67.120753458,4397.0
67.137464727,4398.0
67.154175996,4436.0
67.170887265,4430.0
67.187598534,4255.0
67.204309803,4470.0
67.221021072,4427.0
67.237732341,4328.0
67.254443610,4372.0
67.271154879,4304.0
67.287866148,4328.0
67.304577417,4286.0
67.321288686,4362.0
67.337999954,4303.0
67.354711223,4343.0
67.371422492,4367.0
67.388133761,4362.0
67.404845030,4341.0
67.421556299,4309.0
67.438267568,4299.0
67.454978837,4385.0
67.471690106,4393.0
67.488401375,4299.0
67.505112644,4502.0
67.521823913,4405.0
67.538535182,4335.0
67.555246451,4345.0
67.571957720,4347.0
67.588668989,4394.0
67.605380258,4420.0
67.622091527,4322.0
67.638802796,4256.0
67.655514065,4316.0
67.672225334,4253.0
67.688936603,4323.0
67.705647872,4420.0
67.722359141,4353.0
67.739070410,4273.0
67.755781679,4340.0
67.772492948,4360.0
67.789204217,4323.0
67.805915486,4420.0
67.822626755,4374.0
67.839338024,4395.0
67.856049293,4336.0
67.872760562,4532.0
67.889471831,4494.0
67.906183100,4617.0
67.922894369,4390.0
67.939605638,4569.0
67.956316907,4588.0
67.973028176,4607.0
67.989739445,4625.0
68.006450714,4751.0
68.023161983,4602.0
68.039873252,4636.0
68.056584521,4452.0
68.073295790,4463.0
68.090007059,4360.0
68.106718328,4506.0
68.123429597,4473.0
68.140140866,4399.0
68.156852134,4468.0
68.173563403,4525.0
68.190274672,4546.0
68.206985941,4535.0
68.223697210,4435.0
68.240408479,4559.0
68.257119748,4477.0
68.273831017,4410.0
68.290542286,4347.0
68.307253555,4342.0
68.323964824,4267.0
68.340676093,4438.0
68.357387362,4393.0
68.374098631,4442.0
68.390809900,4503.0
68.407521169,4290.0
68.424232438,4234.0
68.440943707,4378.0
68.457654976,4478.0
68.474366245,4305.0
68.491077514,4453.0
68.507788783,4379.0
68.524500052,4312.0
68.541211321,4397.0
68.557922590,4303.0
68.574633859,4330.0
68.591345128,4364.0
68.608056397,4399.0
68.624767666,4280.0
68.641478935,4305.0
68.658190204,4368.0
68.674901473,4374.0
68.691612742,4361.0
68.708324011,4317.0
68.725035280,4443.0
68.741746549,4423.0
68.758457818,4435.0
68.775169087,4367.0
68.791880356,4375.0
68.808591625,4338.0
68.825302894,4361.0
68.842014163,4360.0
68.858725432,4385.0
68.875436701,4266.0
68.892147970,4492.0
68.908859239,4372.0
68.925570508,4334.0
68.942281777,4435.0
68.958993045,4498.0
68.975704314,4394.0
68.992415583,4477.0
69.009126852,4410.0
69.025838121,4342.0
69.042549390,4429.0
69.059260659,4462.0
69.075971928,4282.0
69.092683197,4532.0
69.109394466,4450.0
69.126105735,4448.0
69.142817004,4356.0
69.159528273,4422.0
69.176239542,4367.0
69.192950811,4421.0
69.209662080,4427.0
69.226373349,4413.0
69.243084618,4343.0
69.259795887,4378.0
69.276507156,4382.0
69.293218425,4203.0
69.309929694,4513.0
69.326640963,4310.0
69.343352232,4298.0
69.360063501,4332.0
69.376774770,4366.0
69.393486039,4383.0
69.410197308,4462.0
69.426908577,4434.0
69.443619846,4341.0
69.460331115,4365.0
69.477042384,4415.0
69.493753653,4443.0
69.510464922,4365.0
69.527176191,4263.0
69.543887460,4350.0
69.560598729,4259.0
69.577309998,4358.0
69.594021267,4425.0
69.610732536,4439.0
69.627443805,4428.0
69.644155074,4270.0
69.660866343,4315.0
69.677577612,4356.0
69.694288881,4383.0
69.711000150,4378.0
69.727711419,4308.0
69.744422688,4399.0
69.761133956,4401.0
69.777845225,4302.0
69.794556494,4354.0
69.811267763,4459.0
69.827979032,4284.0
69.844690301,4382.0
69.861401570,4449.0
69.878112839,4395.0
69.894824108,4435.0
69.911535377,4467.0
69.928246646,4337.0
69.944957915,4448.0
69.961669184,4527.0
69.978380453,4394.0
69.995091722,4421.0
70.011802991,4418.0
70.028514260,4362.0
70.045225529,4482.0
70.061936798,4394.0
70.078648067,4364.0
70.095359336,4400.0
70.112070605,4297.0
70.128781874,4356.0
70.145493143,4521.0
70.162204412,4394.0
70.178915681,4335.0
70.195626950,4369.0
70.212338219,4311.0
70.229049488,4332.0
70.245760757,4401.0
70.262472026,4358.0
70.279183295,4380.0
70.295894564,4284.0
70.312605833,4212.0
70.329317102,4298.0
70.346028371,4465.0
70.362739640,4476.0
70.379450909,4339.0
70.396162178,4375.0
70.412873447,4416.0
70.429584716,4419.0
70.446295985,4345.0
70.463007254,4392.0
70.479718523,4341.0
70.496429792,4291.0
70.513141061,4380.0
70.529852330,4348.0
70.546563599,4508.0
70.563274867,4316.0
70.579986136,4309.0
70.596697405,4368.0
70.613408674,4343.0
70.630119943,4300.0
70.646831212,4487.0
70.663542481,4453.0
70.680253750,4391.0
70.696965019,4249.0
70.713676288,4443.0
70.730387557,4364.0
70.747098826,4489.0
70.763810095,4433.0
70.780521364,4297.0
70.797232633,4396.0
70.813943902,4195.0
70.830655171,4490.0
70.847366440,4437.0
70.864077709,4349.0
70.880788978,4424.0
70.897500247,4407.0
70.914211516,4419.0
70.930922785,4378.0
70.947634054,4369.0
70.964345323,4421.0
70.981056592,4430.0
70.997767861,4461.0
71.014479130,4382.0
71.031190399,4385.0
71.047901668,4412.0
71.064612937,4459.0
71.081324206,4516.0
71.098035475,4498.0
71.114746744,4569.0
71.131458013,4458.0
71.148169282,4589.0
71.164880551,4497.0
71.181591820,4428.0
71.198303089,4518.0
71.215014358,4487.0
71.231725627,4456.0
71.248436896,4511.0
71.265148165,4428.0
71.281859434,4556.0
71.298570703,4491.0
71.315281972,4427.0
71.331993241,4425.0
71.348704510,4432.0
71.365415779,4504.0
71.382127047,4436.0
71.398838316,4331.0
71.415549585,4537.0
71.432260854,4457.0
71.448972123,4512.0
71.465683392,4463.0
71.482394661,4609.0
71.499105930,4392.0
71.515817199,4406.0
71.532528468,4632.0
71.549239737,4499.0
71.565951006,4407.0
71.582662275,4448.0
71.599373544,4573.0
71.616084813,4483.0
71.632796082,4517.0
71.649507351,4431.0
71.666218620,4487.0
71.682929889,4483.0
71.699641158,4447.0
71.716352427,4431.0
71.733063696,4496.0
71.749774965,4429.0
71.766486234,4501.0
71.783197503,4569.0
71.799908772,4367.0
71.816620041,4591.0
71.833331310,4502.0
71.850042579,4377.0
71.866753848,4464.0
71.883465117,4563.0
71.900176386,4471.0
71.916887655,4496.0
71.933598924,4423.0
71.950310193,4450.0
71.967021462,4516.0
71.983732731,4587.0
72.000444000,4425.0
72.017155269,4604.0
72.033866538,4406.0
72.050577807,4468.0
72.067289076,4546.0
72.084000345,4639.0
72.100711614,4401.0
72.117422883,4549.0
72.134134152,4561.0
72.150845421,4445.0
72.167556690,4521.0
72.184267958,4471.0
72.200979227,4434.0
72.217690496,4482.0
72.234401765,4526.0
72.251113034,4521.0
72.267824303,4420.0
72.284535572,4559.0
72.301246841,4605.0
72.317958110,4282.0
72.334669379,4430.0
72.351380648,4411.0
72.368091917,4574.0
72.384803186,4537.0
72.401514455,4473.0
72.418225724,4476.0
72.434936993,4526.0
72.451648262,4634.0
72.468359531,4448.0
72.485070800,4399.0
72.501782069,4439.0
72.518493338,4549.0
72.535204607,4546.0
72.551915876,4470.0
72.568627145,4496.0
72.585338414,4337.0
72.602049683,4435.0
72.618760952,4434.0
72.635472221,4494.0
72.652183490,4463.0
72.668894759,4397.0
72.685606028,4352.0
72.702317297,4489.0
72.719028566,4614.0
72.735739835,4574.0
72.752451104,4513.0
72.769162373,4505.0
72.785873642,4555.0
72.802584911,4541.0
72.819296180,4539.0
72.836007449,4705.0
72.852718718,4613.0
72.869429987,4642.0
72.886141256,4556.0
72.902852525,4615.0
72.919563794,4530.0
72.936275063,4468.0
72.952986332,4452.0
72.969697601,4585.0
72.986408869,4558.0
73.003120138,4532.0
73.019831407,4600.0
73.036542676,4574.0
73.053253945,4577.0
73.069965214,4533.0
73.086676483,4488.0
73.103387752,4432.0
73.120099021,4571.0
73.136810290,4437.0
73.153521559,4554.0
73.170232828,4596.0
73.186944097,4516.0
73.203655366,4559.0
73.220366635,4652.0
73.237077904,4717.0
73.253789173,4518.0
73.270500442,4658.0
73.287211711,4579.0
73.303922980,4745.0
73.320634249,4711.0
73.337345518,4569.0
73.354056787,4564.0
73.370768056,4707.0
73.387479325,4653.0
73.404190594,4714.0
73.420901863,4656.0
73.437613132,4789.0
73.454324401,4706.0
73.471035670,4754.0
73.487746939,4992.0
73.504458208,4792.0
73.521169477,5025.0
73.537880746,5132.0
73.554592015,5102.0
73.571303284,5408.0
73.588014553,5265.0
73.604725822,5370.0
73.621437091,5407.0
73.638148360,5629.0
73.654859629,5681.0
73.671570898,5793.0
73.688282167,5775.0
73.704993436,6059.0
73.721704705,6191.0
73.738415974,6288.0
73.755127243,6572.0
73.771838512,6891.0
73.788549780,7381.0
73.805261049,7842.0
73.821972318,8653.0
73.838683587,9998.0
73.855394856,12065.0
73.872106125,15643.0
73.888817394,21675.0
73.905528663,31616.0
73.922239932,46552.0
73.938951201,62335.0
73.955662470,67484.0
73.972373739,57272.0
73.989085008,40668.0
74.005796277,27414.0
74.022507546,19325.0
74.039218815,14755.0
74.055930084,13008.0
74.072641353,12538.0
74.089352622,13508.0
74.106063891,15839.0
74.122775160,20589.0
74.139486429,27519.0
74.156197698,34072.0
74.172908967,35610.0
74.189620236,30445.0
74.206331505,22374.0
74.223042774,15857.0
74.239754043,11917.0
74.256465312,9516.0
74.273176581,8148.0
74.289887850,7327.0
74.306599119,6623.0
74.323310388,6282.0
74.340021657,5906.0
74.356732926,5748.0
74.373444195,5609.0
74.390155464,5467.0
74.406866733,5332.0
74.423578002,5185.0
74.440289271,5081.0
74.457000540,4992.0
74.473711809,4961.0
74.490423078,4904.0
74.507134347,4844.0
74.523845616,4891.0
74.540556885,4846.0
74.557268154,4816.0
74.573979423,4836.0
74.590690692,4930.0
74.607401960,4838.0
74.624113229,4691.0
74.640824498,4734.0
74.657535767,4663.0
74.674247036,4732.0
74.690958305,4621.0
74.707669574,4665.0
74.724380843,4726.0
74.741092112,4555.0
74.757803381,4656.0
74.774514650,4599.0
74.791225919,4675.0
74.807937188,4514.0
74.824648457,4616.0
74.841359726,4536.0
74.858070995,4616.0
74.874782264,4496.0
74.891493533,4645.0
74.908204802,4651.0
74.924916071,4495.0
74.941627340,4657.0
74.958338609,4703.0
74.975049878,4590.0
74.991761147,4386.0
75.008472416,4552.0
75.025183685,4541.0
75.041894954,4662.0
75.058606223,4467.0
75.075317492,4477.0
75.092028761,4436.0
75.108740030,4562.0
75.125451299,4586.0
75.142162568,4538.0
75.158873837,4510.0
75.175585106,4522.0
75.192296375,4488.0
75.209007644,4555.0
75.225718913,4462.0
75.242430182,4451.0
75.259141451,4581.0
75.275852720,4420.0
75.292563989,4445.0
75.309275258,4427.0
75.325986527,4490.0
75.342697796,4396.0
75.359409065,4491.0
75.376120334,4398.0
75.392831603,4482.0
75.409542871,4507.0
75.426254140,4433.0
75.442965409,4509.0
75.459676678,4487.0
75.476387947,4416.0
75.493099216,4570.0
75.509810485,4396.0
75.526521754,4439.0
75.543233023,4449.0
75.559944292,4543.0
75.576655561,4507.0
75.593366830,4635.0
75.610078099,4495.0
75.626789368,4543.0
75.643500637,4578.0
75.660211906,4611.0
75.676923175,4575.0
75.693634444,4533.0
75.710345713,4412.0
75.727056982,4463.0
75.743768251,4499.0
75.760479520,4368.0
75.777190789,4489.0
75.793902058,4540.0
75.810613327,4465.0
75.827324596,4532.0
75.844035865,4438.0
75.860747134,4439.0
75.877458403,4439.0
75.894169672,4366.0
75.910880941,4420.0
75.927592210,4374.0
75.944303479,4470.0
75.961014748,4505.0
75.977726017,4371.0
75.994437286,4562.0
76.011148555,4381.0
76.027859824,4402.0
76.044571093,4455.0
76.061282362,4469.0
76.077993631,4311.0
76.094704900,4443.0
76.111416169,4393.0
76.128127438,4300.0
76.144838707,4476.0
76.161549976,4515.0
76.178261245,4558.0
76.194972514,4484.0
76.211683782,4510.0
76.228395051,4556.0
76.245106320,4375.0
76.261817589,4473.0
76.278528858,4414.0
76.295240127,4442.0
76.311951396,4391.0
76.328662665,4452.0
76.345373934,4513.0
76.362085203,4434.0
76.378796472,4522.0
76.395507741,4400.0
76.412219010,4404.0
76.428930279,4590.0
76.445641548,4414.0
76.462352817,4387.0
76.479064086,4403.0
76.495775355,4369.0
76.512486624,4337.0
76.529197893,4474.0
76.545909162,4424.0
76.562620431,4397.0
76.579331700,4480.0
76.596042969,4561.0
76.612754238,4425.0
76.629465507,4417.0
76.646176776,4365.0
76.662888045,4383.0
76.679599314,4470.0
76.696310583,4401.0
76.713021852,4563.0
76.729733121,4480.0
76.746444390,4535.0
76.763155659,4370.0
76.779866928,4373.0
76.796578197,4283.0
76.813289466,4580.0
76.830000735,4541.0
76.846712004,4295.0
76.863423273,4443.0
76.880134542,4397.0
76.896845811,4316.0
76.913557080,4408.0
76.930268349,4356.0
76.946979618,4342.0
76.963690887,4511.0
76.980402156,4314.0
76.997113425,4364.0
77.013824693,4472.0
77.030535962,4340.0
77.047247231,4468.0
77.063958500,4286.0
77.080669769,4488.0
77.097381038,4312.0
77.114092307,4443.0
77.130803576,4359.0
77.147514845,4356.0
77.164226114,4490.0
77.180937383,4381.0
77.197648652,4495.0
77.214359921,4445.0
77.231071190,4309.0
77.247782459,4410.0
77.264493728,4489.0
77.281204997,4365.0
77.297916266,4386.0
77.314627535,4336.0
77.331338804,4490.0
77.348050073,4408.0
77.364761342,4275.0
77.381472611,4413.0
77.398183880,4474.0
77.414895149,4414.0
77.431606418,4389.0
77.448317687,4444.0
77.465028956,4472.0
77.481740225,4472.0
77.498451494,4565.0
77.515162763,4357.0
77.531874032,4382.0
77.548585301,4358.0
77.565296570,4366.0
77.582007839,4434.0
77.598719108,4473.0
77.615430377,4428.0
77.632141646,4313.0
77.648852915,4443.0
77.665564184,4326.0
77.682275453,4299.0
77.698986722,4381.0
77.715697991,4308.0
77.732409260,4308.0
77.749120529,4489.0
77.765831798,4422.0
77.782543067,4400.0
77.799254336,4525.0
77.815965605,4409.0
77.832676873,4336.0
77.849388142,4314.0
77.866099411,4408.0
77.882810680,4343.0
77.899521949,4426.0
77.916233218,4439.0
77.932944487,4382.0
77.949655756,4345.0
77.966367025,4402.0
77.983078294,4482.0
77.999789563,4440.0
78.016500832,4412.0
78.033212101,4341.0
78.049923370,4403.0
78.066634639,4413.0
78.083345908,4369.0
78.100057177,4362.0
78.116768446,4455.0
78.133479715,4458.0
78.150190984,4472.0
78.166902253,4422.0
78.183613522,4432.0
78.200324791,4421.0
78.217036060,4495.0
78.233747329,4363.0
78.250458598,4500.0
78.267169867,4404.0
78.283881136,4443.0
78.300592405,4508.0
78.317303674,4325.0
78.334014943,4409.0
78.350726212,4365.0
78.367437481,4447.0
78.384148750,4322.0
78.400860019,4285.0
78.417571288,4299.0
78.434282557,4377.0
78.450993826,4286.0
78.467705095,4521.0
78.484416364,4470.0
78.501127633,4409.0
78.517838902,4385.0
78.534550171,4422.0
78.551261440,4429.0
78.567972709,4279.0
78.584683978,4496.0
78.601395247,4474.0
78.618106516,4407.0
78.634817784,4318.0
78.651529053,4409.0
78.668240322,4506.0
78.684951591,4357.0
78.701662860,4356.0
78.718374129,4367.0
78.735085398,4394.0
78.751796667,4359.0
78.768507936,4378.0
78.785219205,4477.0
78.801930474,4494.0
78.818641743,4381.0
78.835353012,4552.0
78.852064281,4366.0
78.868775550,4382.0
78.885486819,4352.0
78.902198088,4369.0
78.918909357,4317.0
78.935620626,4372.0
78.952331895,4413.0
78.969043164,4379.0
78.985754433,4338.0
79.002465702,4390.0
79.019176971,4483.0
79.035888240,4373.0
79.052599509,4359.0
79.069310778,4383.0
79.086022047,4461.0
79.102733316,4449.0
79.119444585,4471.0
79.136155854,4626.0
79.152867123,4471.0
79.169578392,4407.0
79.186289661,4400.0
79.203000930,4504.0
79.219712199,4323.0
79.236423468,4475.0
79.253134737,4484.0
79.269846006,4423.0
79.286557275,4497.0
79.303268544,4298.0
79.319979813,4415.0
79.336691082,4391.0
79.353402351,4405.0
79.370113620,4555.0
79.386824889,4503.0
79.403536158,4372.0
79.420247427,4552.0
79.436958695,4412.0
79.453669964,4474.0
79.470381233,4378.0
79.487092502,4525.0
79.503803771,4409.0
79.520515040,4374.0
79.537226309,4412.0
79.553937578,4477.0
79.570648847,4338.0
79.587360116,4499.0
79.604071385,4307.0
79.620782654,4433.0
79.637493923,4410.0
79.654205192,4485.0
79.670916461,4435.0
79.687627730,4235.0
79.704338999,4448.0
79.721050268,4323.0
79.737761537,4403.0
79.754472806,4437.0
79.771184075,4349.0
79.787895344,4408.0
79.804606613,4407.0
79.821317882,4492.0
79.838029151,4286.0
79.854740420,4284.0
79.871451689,4361.0
79.888162958,4323.0
79.904874227,4291.0
79.921585496,4390.0
79.938296765,4340.0
79.955008034,4436.0
79.971719303,4471.0
79.988430572,4328.0
80.005141841,4374.0
80.021853110,4384.0
80.038564379,4448.0
80.055275648,4361.0
80.071986917,4442.0
80.088698186,4460.0
80.105409455,4140.0
80.122120724,4441.0
80.138831993,4355.0
80.155543262,4352.0
80.172254531,4430.0
80.188965800,4373.0
80.205677069,4437.0
80.222388338,4531.0
80.239099606,4329.0
80.255810875,4474.0
80.272522144,4411.0
80.289233413,4296.0
80.305944682,4376.0
80.322655951,4386.0
80.339367220,4340.0
80.356078489,4316.0
80.372789758,4347.0
80.389501027,4414.0
80.406212296,4294.0
80.422923565,4326.0
80.439634834,4404.0
80.456346103,4435.0
80.473057372,4497.0
80.489768641,4456.0
80.506479910,4292.0
80.523191179,4413.0
80.539902448,4360.0
80.556613717,4389.0
80.573324986,4412.0
80.590036255,4488.0
80.606747524,4355.0
80.623458793,4404.0
80.640170062,4487.0
80.656881331,4347.0
80.673592600,4408.0
80.690303869,4258.0
80.707015138,4532.0
80.723726407,4429.0
80.740437676,4307.0
80.757148945,4362.0
80.773860214,4434.0
80.790571483,4438.0
80.807282752,4258.0
80.823994021,4306.0
80.840705290,4426.0
80.857416559,4298.0
80.874127828,4366.0
80.890839097,4483.0
80.907550366,4431.0
80.924261635,4420.0
80.940972904,4401.0
80.957684173,4451.0
80.974395442,4467.0
80.991106711,4463.0
81.007817980,4350.0
81.024529249,4432.0
81.041240518,4386.0
81.057951786,4291.0
81.074663055,4361.0
81.091374324,4480.0
81.108085593,4351.0
81.124796862,4319.0
81.141508131,4387.0
81.158219400,4412.0
81.174930669,4425.0
81.191641938,4446.0
81.208353207,4339.0
81.225064476,4401.0
81.241775745,4429.0
81.258487014,4571.0
81.275198283,4360.0
81.291909552,4512.0
81.308620821,4399.0
81.325332090,4422.0
81.342043359,4388.0
81.358754628,4457.0
81.375465897,4342.0
81.392177166,4337.0
81.408888435,4373.0
81.425599704,4277.0
81.442310973,4324.0
81.459022242,4374.0
81.475733511,4328.0
81.492444780,4363.0
81.509156049,4323.0
81.525867318,4422.0
81.542578587,4353.0
81.559289856,4329.0
81.576001125,4446.0
81.592712394,4473.0
81.609423663,4462.0
81.626134932,4446.0
81.642846201,4448.0
81.659557470,4346.0
81.676268739,4293.0
81.692980008,4538.0
81.709691277,4285.0
81.726402546,4338.0
81.743113815,4524.0
81.759825084,4362.0
81.776536353,4336.0
81.793247622,4388.0
81.809958891,4398.0
81.826670160,4397.0
81.843381429,4379.0
81.860092697,4450.0
81.876803966,4440.0
81.893515235,4429.0
81.910226504,4440.0
81.926937773,4443.0
81.943649042,4478.0
81.960360311,4602.0
81.977071580,4363.0
81.993782849,4469.0
82.010494118,4355.0
82.027205387,4699.0
82.043916656,4569.0
82.060627925,4475.0
82.077339194,4536.0
82.094050463,4321.0
82.110761732,4449.0
82.127473001,4380.0
82.144184270,4352.0
82.160895539,4455.0
82.177606808,4464.0
82.194318077,4492.0
82.211029346,4435.0
82.227740615,4363.0
82.244451884,4543.0
82.261163153,4533.0
82.277874422,4458.0
82.294585691,4337.0
82.311296960,4541.0
82.328008229,4430.0
82.344719498,4266.0
82.361430767,4282.0
82.378142036,4393.0
82.394853305,4280.0
82.411564574,4424.0
82.428275843,4309.0
82.444987112,4377.0
82.461698381,4276.0
82.478409650,4391.0
82.495120919,4428.0
82.511832188,4310.0
82.528543457,4304.0
82.545254726,4355.0
82.561965995,4439.0
82.578677264,4288.0
82.595388533,4311.0
82.612099802,4402.0
82.628811071,4425.0
82.645522340,4390.0
82.662233608,4415.0
82.678944877,4243.0
82.695656146,4419.0
82.712367415,4425.0
82.729078684,4490.0
82.745789953,4295.0
82.762501222,4581.0
82.779212491,4403.0
82.795923760,4416.0
82.812635029,4310.0
82.829346298,4395.0
82.846057567,4439.0
82.862768836,4312.0
82.879480105,4250.0
82.896191374,4229.0
82.912902643,4350.0
82.929613912,4395.0
82.946325181,4423.0
82.963036450,4537.0
82.979747719,4378.0
82.996458988,4285.0
83.013170257,4438.0
83.029881526,4225.0
83.046592795,4326.0
83.063304064,4494.0
83.080015333,4386.0
83.096726602,4342.0
83.113437871,4477.0
83.130149140,4387.0
83.146860409,4391.0
83.163571678,4434.0
83.180282947,4387.0
83.196994216,4305.0
83.213705485,4420.0
83.230416754,4318.0
83.247128023,4340.0
83.263839292,4458.0
83.280550561,4347.0
83.297261830,4360.0
83.313973099,4408.0
83.330684368,4425.0
83.347395637,4287.0
83.364106906,4321.0
83.380818175,4357.0
83.397529444,4442.0
83.414240713,4383.0
83.430951982,4399.0
83.447663251,4427.0
83.464374519,4463.0
83.481085788,4470.0
83.497797057,4364.0
83.514508326,4455.0
83.531219595,4339.0
83.547930864,4299.0
83.564642133,4359.0
83.581353402,4343.0
83.598064671,4361.0
83.614775940,4495.0
83.631487209,4320.0
83.648198478,4306.0
83.664909747,4448.0
83.681621016,4406.0
83.698332285,4222.0
83.715043554,4417.0
83.731754823,4352.0
83.748466092,4455.0
83.765177361,4329.0
83.781888630,4374.0
83.798599899,4273.0
83.815311168,4353.0
83.832022437,4227.0
83.848733706,4330.0
83.865444975,4409.0
83.882156244,4321.0
83.898867513,4476.0
83.915578782,4182.0
83.932290051,4435.0
83.949001320,4341.0
83.965712589,4274.0
83.982423858,4438.0
83.999135127,4256.0
84.015846396,4478.0
84.032557665,4452.0
84.049268934,4259.0
84.065980203,4340.0
84.082691472,4434.0
84.099402741,4408.0
84.116114010,4290.0
84.132825279,4275.0
84.149536548,4374.0
84.166247817,4380.0
84.182959086,4341.0
84.199670355,4450.0
84.216381624,4408.0
84.233092893,4357.0
84.249804162,4346.0
84.266515431,4374.0
84.283226699,4403.0
84.299937968,4303.0
84.316649237,4288.0
84.333360506,4294.0
84.350071775,4250.0
84.366783044,4391.0
84.383494313,4314.0
84.400205582,4432.0
84.416916851,4365.0
84.433628120,4272.0
84.450339389,4446.0
84.467050658,4438.0
84.483761927,4299.0
84.500473196,4423.0
84.517184465,4380.0
84.533895734,4459.0
84.550607003,4380.0
84.567318272,4410.0
84.584029541,4340.0
84.600740810,4297.0
84.617452079,4338.0
84.634163348,4369.0
84.650874617,4315.0
84.667585886,4349.0
84.684297155,4293.0
84.701008424,4343.0
84.717719693,4434.0
84.734430962,4415.0
84.751142231,4319.0
84.767853500,4376.0
84.784564769,4318.0
84.801276038,4441.0
84.817987307,4444.0
84.834698576,4410.0
84.851409845,4422.0
84.868121114,4430.0
84.884832383,4381.0
84.901543652,4354.0
84.918254921,4337.0
84.934966190,4441.0
84.951677459,4313.0
84.968388728,4478.0
84.985099997,4371.0
85.001811266,4365.0
85.018522535,4317.0
85.035233804,4398.0
85.051945073,4344.0
85.068656342,4433.0
85.085367610,4409.0
85.102078879,4336.0
85.118790148,4323.0
85.135501417,4280.0
85.152212686,4456.0
85.168923955,4387.0
85.185635224,4462.0
85.202346493,4292.0
85.219057762,4305.0
85.235769031,4352.0
85.252480300,4288.0
85.269191569,4397.0
85.285902838,4305.0
85.302614107,4480.0
85.319325376,4471.0
85.336036645,4341.0
85.352747914,4376.0
85.369459183,4381.0
85.386170452,4467.0
85.402881721,4322.0
85.419592990,4317.0
85.436304259,4365.0
85.453015528,4405.0
85.469726797,4130.0
85.486438066,4244.0
85.503149335,4417.0
85.519860604,4350.0
85.536571873,4337.0
85.553283142,4424.0
85.569994411,4400.0
85.586705680,4418.0
85.603416949,4349.0
85.620128218,4402.0
85.636839487,4419.0
85.653550756,4278.0
85.670262025,4435.0
85.686973294,4359.0
85.703684563,4457.0
85.720395832,4285.0
85.737107101,4323.0
85.753818370,4391.0
85.770529639,4276.0
85.787240908,4338.0
85.803952177,4305.0
85.820663446,4240.0
85.837374715,4351.0
85.854085984,4407.0
85.870797253,4493.0
85.887508521,4359.0
85.904219790,4415.0
85.920931059,4510.0
85.937642328,4371.0
85.954353597,4324.0
85.971064866,4407.0
85.987776135,4317.0
86.004487404,4409.0
86.021198673,4309.0
86.037909942,4530.0
86.054621211,4441.0
86.071332480,4396.0
86.088043749,4388.0
86.104755018,4379.0
86.121466287,4284.0
86.138177556,4230.0
86.154888825,4474.0
86.171600094,4473.0
86.188311363,4365.0
86.205022632,4423.0
86.221733901,4391.0
86.238445170,4313.0
86.255156439,4284.0
86.271867708,4343.0
86.288578977,4453.0
86.305290246,4425.0
86.322001515,4357.0
86.338712784,4409.0
86.355424053,4465.0
86.372135322,4301.0
86.388846591,4344.0
86.405557860,4421.0
86.422269129,4425.0
86.438980398,4447.0
86.455691667,4368.0
86.472402936,4368.0
86.489114205,4305.0
86.505825474,4520.0
86.522536743,4470.0
86.539248012,4364.0
86.555959281,4372.0
86.572670550,4330.0
86.589381819,4350.0
86.606093088,4479.0
86.622804357,4286.0
86.639515626,4427.0
86.656226895,4343.0
86.672938164,4282.0
86.689649432,4401.0
86.706360701,4366.0
86.723071970,4431.0
86.739783239,4384.0
86.756494508,4385.0
86.773205777,4467.0
86.789917046,4383.0
86.806628315,4477.0
86.823339584,4525.0
86.840050853,4473.0
86.856762122,4502.0
86.873473391,4262.0
86.890184660,4454.0
86.906895929,4330.0
86.923607198,4415.0
86.940318467,4559.0
86.957029736,4380.0
86.973741005,4332.0
86.990452274,4387.0
87.007163543,4387.0
87.023874812,4299.0
87.040586081,4355.0
87.057297350,4357.0
87.074008619,4306.0
87.090719888,4348.0
87.107431157,4418.0
87.124142426,4375.0
87.140853695,4386.0
87.157564964,4382.0
87.174276233,4484.0
87.190987502,4429.0
87.207698771,4489.0
87.224410040,4232.0
87.241121309,4357.0
87.257832578,4499.0
87.274543847,4425.0
87.291255116,4298.0
87.307966385,4479.0
87.324677654,4483.0
87.341388923,4433.0
87.358100192,4260.0
87.374811461,4378.0
87.391522730,4318.0
87.408233999,4445.0
87.424945268,4338.0
87.441656537,4335.0
87.458367806,4313.0
87.475079075,4326.0
87.491790344,4427.0
87.508501612,4393.0
87.525212881,4458.0
87.541924150,4405.0
87.558635419,4390.0
87.575346688,4346.0
87.592057957,4380.0
87.608769226,4378.0
87.625480495,4408.0
87.642191764,4437.0
87.658903033,4368.0
87.675614302,4351.0
87.692325571,4544.0
87.709036840,4463.0
87.725748109,4315.0
87.742459378,4498.0
87.759170647,4336.0
87.775881916,4452.0
87.792593185,4483.0
87.809304454,4379.0
87.826015723,4440.0
87.842726992,4290.0
87.859438261,4391.0
87.876149530,4430.0
87.892860799,4188.0
87.909572068,4318.0
87.926283337,4300.0
87.942994606,4309.0
87.959705875,4431.0
87.976417144,4423.0
87.993128413,4429.0
88.009839682,4436.0
88.026550951,4465.0
88.043262220,4452.0
88.059973489,4559.0
88.076684758,4413.0
88.093396027,4394.0
88.110107296,4327.0
88.126818565,4440.0
88.143529834,4437.0
88.160241103,4459.0
88.176952372,4234.0
88.193663641,4294.0
88.210374910,4436.0
88.227086179,4311.0
88.243797448,4421.0
88.260508717,4356.0
88.277219986,4255.0
88.293931255,4367.0
88.310642523,4299.0
88.327353792,4472.0
88.344065061,4326.0
88.360776330,4348.0
88.377487599,4445.0
88.394198868,4356.0
88.410910137,4277.0
88.427621406,4380.0
88.444332675,4465.0
88.461043944,4384.0
88.477755213,4347.0
88.494466482,4578.0
88.511177751,4431.0
88.527889020,4412.0
88.544600289,4511.0
88.561311558,4397.0
88.578022827,4495.0
88.594734096,4428.0
88.611445365,4472.0
88.628156634,4391.0
88.644867903,4429.0
88.661579172,4457.0
88.678290441,4393.0
88.695001710,4445.0
88.711712979,4479.0
88.728424248,4473.0
88.745135517,4479.0
88.761846786,4411.0
88.778558055,4363.0
88.795269324,4555.0
88.811980593,4454.0
88.828691862,4416.0
88.845403131,4526.0
88.862114400,4403.0
88.878825669,4355.0
88.895536938,4445.0
88.912248207,4402.0
88.928959476,4454.0
88.945670745,4427.0
88.962382014,4469.0
88.979093283,4512.0
88.995804552,4545.0
89.012515821,4490.0
89.029227090,4417.0
89.045938359,4391.0
89.062649628,4530.0
89.079360897,4491.0
89.096072166,4444.0
89.112783434,4492.0
89.129494703,4419.0
89.146205972,4628.0
89.162917241,4479.0
89.179628510,4501.0
89.196339779,4458.0
89.213051048,4645.0
89.229762317,4546.0
89.246473586,4547.0
89.263184855,4623.0
89.279896124,4641.0
89.296607393,4594.0
89.313318662,4653.0
89.330029931,4711.0
89.346741200,4630.0
89.363452469,4755.0
89.380163738,4737.0
89.396875007,4736.0
89.413586276,4789.0
89.430297545,4837.0
89.447008814,4845.0
89.463720083,4889.0
89.480431352,4990.0
89.497142621,5064.0
89.513853890,5144.0
89.530565159,5130.0
89.547276428,5353.0
89.563987697,5437.0
89.580698966,5493.0
89.597410235,5825.0
89.614121504,6151.0
89.630832773,6427.0
89.647544042,6986.0
89.664255311,7681.0
89.680966580,8995.0
89.697677849,10744.0
89.714389118,13199.0
89.731100387,16696.0
89.747811656,20730.0
89.764522925,23070.0
89.781234194,22602.0
89.797945463,19923.0
89.814656732,16099.0
89.831368001,13096.0
89.848079270,10805.0
89.864790539,9074.0
89.881501808,8031.0
89.898213077,7425.0
89.914924345,7272.0
89.931635614,7066.0
89.948346883,7283.0
89.965058152,7660.0
89.981769421,8181.0
89.998480690,9556.0
90.015191959,10885.0
90.031903228,12669.0
90.048614497,13626.0
90.065325766,13805.0
90.082037035,12462.0
90.098748304,10764.0
90.115459573,9086.0
90.132170842,7925.0
90.148882111,7024.0
90.165593380,6332.0
90.182304649,5901.0
90.199015918,5682.0
90.215727187,5318.0
90.232438456,5217.0
90.249149725,5125.0
90.265860994,4972.0
90.282572263,5008.0
90.299283532,4885.0
90.315994801,4828.0
90.332706070,4744.0
90.349417339,4777.0
90.366128608,4697.0
90.382839877,4761.0
90.399551146,4572.0
90.416262415,4709.0
90.432973684,4669.0
90.449684953,4592.0
90.466396222,4568.0
90.483107491,4416.0
90.499818760,4590.0
90.516530029,4549.0
90.533241298,4550.0
90.549952567,4637.0
90.566663836,4473.0
90.583375105,4549.0
90.600086374,4496.0
90.616797643,4638.0
90.633508912,4474.0
90.650220181,4556.0
90.666931450,4578.0
90.683642719,4510.0
90.700353988,4485.0
90.717065257,4484.0
90.733776525,4496.0
90.750487794,4490.0
90.767199063,4384.0
90.783910332,4454.0
90.800621601,4333.0
90.817332870,4328.0
90.834044139,4454.0
90.850755408,4337.0
90.867466677,4487.0
90.884177946,4434.0
90.900889215,4413.0
90.917600484,4466.0
90.934311753,4310.0
90.951023022,4334.0
90.967734291,4398.0
90.984445560,4396.0
91.001156829,4490.0
91.017868098,4397.0
91.034579367,4489.0
91.051290636,4414.0
91.068001905,4474.0
91.084713174,4443.0
91.101424443,4562.0
91.118135712,4568.0
91.134846981,4422.0
91.151558250,4379.0
91.168269519,4377.0
91.184980788,4501.0
91.201692057,4479.0
91.218403326,4463.0
91.235114595,4528.0
91.251825864,4262.0
91.268537133,4603.0
91.285248402,4471.0
91.301959671,4443.0
91.318670940,4422.0
91.335382209,4416.0
91.352093478,4436.0
91.368804747,4427.0
91.385516016,4516.0
91.402227285,4418.0
91.418938554,4449.0
91.435649823,4354.0
91.452361092,4335.0
91.469072361,4364.0
91.485783630,4406.0
91.502494899,4452.0
91.519206168,4402.0
91.535917436,4418.0
91.552628705,4443.0
91.569339974,4437.0
91.586051243,4404.0
91.602762512,4483.0
91.619473781,4402.0
91.636185050,4366.0
91.652896319,4439.0
91.669607588,4361.0
91.686318857,4381.0
91.703030126,4476.0
91.719741395,4368.0
91.736452664,4342.0
91.753163933,4261.0
91.769875202,4508.0
91.786586471,4481.0
91.803297740,4421.0
91.820009009,4365.0
91.836720278,4374.0
91.853431547,4420.0
91.870142816,4477.0
91.886854085,4275.0
91.903565354,4391.0
91.920276623,4327.0
91.936987892,4341.0
91.953699161,4399.0
91.970410430,4505.0
91.987121699,4399.0
92.003832968,4459.0
92.020544237,4447.0
92.037255506,4360.0
92.053966775,4334.0
92.070678044,4436.0
92.087389313,4452.0
92.104100582,4401.0
92.120811851,4312.0
92.137523120,4436.0
92.154234389,4359.0
92.170945658,4363.0
92.187656927,4372.0
92.204368196,4381.0
92.221079465,4497.0
92.237790734,4443.0
92.254502003,4458.0
92.271213272,4383.0
92.287924541,4423.0
92.304635810,4442.0
92.321347079,4263.0
92.338058347,4416.0
92.354769616,4489.0
92.371480885,4490.0
92.388192154,4287.0
92.404903423,4364.0
92.421614692,4373.0
92.438325961,4474.0
92.455037230,4255.0
92.471748499,4339.0
92.488459768,4289.0
92.505171037,4427.0
92.521882306,4439.0
92.538593575,4553.0
92.555304844,4549.0
92.572016113,4371.0
92.588727382,4407.0
92.605438651,4458.0
92.622149920,4344.0
92.638861189,4446.0
92.655572458,4428.0
92.672283727,4463.0
92.688994996,4435.0
92.705706265,4285.0
92.722417534,4454.0
92.739128803,4408.0
92.755840072,4271.0
92.772551341,4446.0
92.789262610,4300.0
92.805973879,4375.0
92.822685148,4336.0
92.839396417,4425.0
92.856107686,4419.0
92.872818955,4361.0
92.889530224,4337.0
92.906241493,4415.0
92.922952762,4348.0
92.939664031,4444.0
92.956375300,4316.0
92.973086569,4535.0
92.989797838,4402.0
93.006509107,4414.0
93.023220376,4371.0
93.039931645,4437.0
93.056642914,4354.0
93.073354183,4337.0
93.090065452,4327.0
93.106776721,4444.0
93.123487990,4365.0
93.140199258,4317.0
93.156910527,4450.0
93.173621796,4443.0
93.190333065,4393.0
93.207044334,4379.0
93.223755603,4425.0
93.240466872,4433.0
93.257178141,4398.0
93.273889410,4461.0
93.290600679,4378.0
93.307311948,4398.0
93.324023217,4416.0
93.340734486,4462.0
93.357445755,4491.0
93.374157024,4369.0
93.390868293,4436.0
93.407579562,4407.0
93.424290831,4459.0
93.441002100,4524.0
93.457713369,4399.0
93.474424638,4346.0
93.491135907,4452.0
93.507847176,4413.0
93.524558445,4456.0
93.541269714,4452.0
93.557980983,4222.0
93.574692252,4378.0
93.591403521,4410.0
93.608114790,4391.0
93.624826059,4500.0
93.641537328,4552.0
93.658248597,4420.0
93.674959866,4425.0
93.691671135,4315.0
93.708382404,4477.0
93.725093673,4412.0
93.741804942,4497.0
93.758516211,4422.0
93.775227480,4534.0
93.791938749,4447.0
93.808650018,4446.0
93.825361287,4370.0
93.842072556,4409.0
93.858783825,4342.0
93.875495094,4415.0
93.892206363,4381.0
93.908917632,4473.0
93.925628901,4578.0
93.942340170,4436.0
93.959051438,4414.0
93.975762707,4230.0
93.992473976,4397.0
94.009185245,4527.0
94.025896514,4443.0
94.042607783,4455.0
94.059319052,4599.0
94.076030321,4546.0
94.092741590,4515.0
94.109452859,4523.0
94.126164128,4362.0
94.142875397,4541.0
94.159586666,4376.0
94.176297935,4365.0
94.193009204,4440.0
94.209720473,4484.0
94.226431742,4491.0
94.243143011,4414.0
94.259854280,4496.0
94.276565549,4442.0
94.293276818,4540.0
94.309988087,4515.0
94.326699356,4536.0
94.343410625,4564.0
94.360121894,4690.0
94.376833163,4529.0
94.393544432,4585.0
94.410255701,4568.0
94.426966970,4597.0
94.443678239,4629.0
94.460389508,4682.0
94.477100777,4704.0
94.493812046,4798.0
94.510523315,4696.0
94.527234584,4716.0
94.543945853,4661.0
94.560657122,4617.0
94.577368391,4698.0
94.594079660,4786.0
94.610790929,4531.0
94.627502198,4720.0
94.644213467,4815.0
94.660924736,4885.0
94.677636005,4802.0
94.694347274,4910.0
94.711058543,5039.0
94.727769812,4965.0
94.744481081,4968.0
94.761192349,5151.0
94.777903618,5397.0
94.794614887,5333.0
94.811326156,5518.0
94.828037425,5842.0
94.844748694,6153.0
94.861459963,6459.0
94.878171232,7210.0
94.894882501,8251.0
94.911593770,9718.0
94.928305039,12332.0
94.945016308,16736.0
94.961727577,21614.0
94.978438846,25521.0
94.995150115,25402.0
95.011861384,21585.0
95.028572653,17001.0
95.045283922,13063.0
95.061995191,10340.0
95.078706460,8701.0
95.095417729,7639.0
95.112128998,6824.0
95.128840267,6683.0
95.145551536,6349.0
95.162262805,6145.0
95.178974074,6398.0
95.195685343,6677.0
95.212396612,7109.0
95.229107881,8051.0
95.245819150,9650.0
95.262530419,11395.0
95.279241688,13615.0
95.295952957,14828.0
95.312664226,14409.0
95.329375495,12309.0
95.346086764,10200.0
95.362798033,8567.0
95.379509302,7247.0
95.396220571,6395.0
95.412931840,5779.0
95.429643109,5597.0
95.446354378,5173.0
95.463065647,5086.0
95.479776916,5251.0
95.496488185,4996.0
95.513199454,4879.0
95.529910723,4821.0
95.546621992,4806.0
95.563333260,4669.0
95.580044529,4801.0
95.596755798,4737.0
95.613467067,4546.0
95.630178336,4602.0
95.646889605,4494.0
95.663600874,4532.0
95.680312143,4544.0
95.697023412,4546.0
95.713734681,4504.0
95.730445950,4455.0
95.747157219,4503.0
95.763868488,4510.0
95.780579757,4585.0
95.797291026,4476.0
95.814002295,4597.0
95.830713564,4381.0
95.847424833,4481.0
95.864136102,4394.0
95.880847371,4399.0
95.897558640,4520.0
95.914269909,4570.0
95.930981178,4610.0
95.947692447,4502.0
95.964403716,4533.0
95.981114985,4460.0
95.997826254,4550.0
96.014537523,4461.0
96.031248792,4414.0
96.047960061,4528.0
96.064671330,4608.0
96.081382599,4443.0
96.098093868,4325.0
96.114805137,4406.0
96.131516406,4396.0
96.148227675,4430.0
96.164938944,4433.0
96.181650213,4488.0
96.198361482,4457.0
96.215072751,4564.0
96.231784020,4395.0
96.248495289,4410.0
96.265206558,4489.0
96.281917827,4349.0
96.298629096,4358.0
96.315340365,4459.0
96.332051634,4464.0
96.348762903,4349.0
96.365474171,4531.0
96.382185440,4438.0
96.398896709,4340.0
96.415607978,4336.0
96.432319247,4421.0
96.449030516,4410.0
96.465741785,4400.0
96.482453054,4349.0
96.499164323,4256.0
96.515875592,4325.0
96.532586861,4326.0
96.549298130,4397.0
96.566009399,4478.0
96.582720668,4316.0
96.599431937,4457.0
96.616143206,4504.0
96.632854475,4407.0
96.649565744,4359.0
96.666277013,4361.0
96.682988282,4397.0
96.699699551,4390.0
96.716410820,4434.0
96.733122089,4337.0
96.749833358,4376.0
96.766544627,4465.0
96.783255896,4336.0
96.799967165,4442.0
96.816678434,4292.0
96.833389703,4361.0
96.850100972,4434.0
96.866812241,4384.0
96.883523510,4560.0
96.900234779,4345.0
96.916946048,4430.0
96.933657317,4332.0
96.950368586,4369.0
96.967079855,4472.0
96.983791124,4402.0
97.000502393,4387.0
97.017213662,4220.0
97.033924931,4407.0
97.050636200,4417.0
97.067347469,4487.0
97.084058738,4363.0
97.100770007,4378.0
97.117481276,4325.0
97.134192545,4453.0
97.150903814,4302.0
97.167615083,4441.0
97.184326351,4363.0
97.201037620,4413.0
97.217748889,4390.0
97.234460158,4316.0
97.251171427,4318.0
97.267882696,4462.0
97.284593965,4479.0
97.301305234,4360.0
97.318016503,4441.0
97.334727772,4452.0
97.351439041,4540.0
97.368150310,4302.0
97.384861579,4275.0
97.401572848,4366.0
97.418284117,4403.0
97.434995386,4361.0
97.451706655,4438.0
97.468417924,4307.0
97.485129193,4310.0
97.501840462,4445.0
97.518551731,4333.0
97.535263000,4296.0
97.551974269,4428.0
97.568685538,4299.0
97.585396807,4339.0
97.602108076,4286.0
97.618819345,4302.0
97.635530614,4426.0
97.652241883,4318.0
97.668953152,4421.0
97.685664421,4285.0
97.702375690,4377.0
97.719086959,4384.0
97.735798228,4393.0
97.752509497,4424.0
97.769220766,4266.0
97.785932035,4341.0
97.802643304,4293.0
97.819354573,4344.0
97.836065842,4311.0
97.852777111,4437.0
97.869488380,4408.0
97.886199649,4330.0
97.902910918,4341.0
97.919622187,4400.0
97.936333456,4338.0
97.953044725,4420.0
97.969755994,4314.0
97.986467262,4296.0
98.003178531,4330.0
98.019889800,4310.0
98.036601069,4380.0
98.053312338,4384.0
98.070023607,4278.0
98.086734876,4276.0
98.103446145,4308.0
98.120157414,4297.0
98.136868683,4368.0
98.153579952,4318.0
98.170291221,4349.0
98.187002490,4398.0
98.203713759,4326.0
98.220425028,4332.0
98.237136297,4360.0
98.253847566,4229.0
98.270558835,4307.0
98.287270104,4364.0
98.303981373,4237.0
98.320692642,4293.0
98.337403911,4381.0
98.354115180,4417.0
98.370826449,4307.0
98.387537718,4330.0
98.404248987,4452.0
98.420960256,4470.0
98.437671525,4252.0
98.454382794,4377.0
98.471094063,4330.0
98.487805332,4494.0
98.504516601,4302.0
98.521227870,4434.0
98.537939139,4334.0
98.554650408,4374.0
98.571361677,4301.0
98.588072946,4254.0
98.604784215,4477.0
98.621495484,4285.0
98.638206753,4266.0
98.654918022,4167.0
98.671629291,4355.0
98.688340560,4258.0
98.705051829,4360.0
98.721763098,4382.0
98.738474367,4390.0
98.755185636,4404.0
98.771896905,4306.0
98.788608173,4267.0
98.805319442,4446.0
98.822030711,4424.0
98.838741980,4294.0
98.855453249,4417.0
98.872164518,4351.0
98.888875787,4394.0
98.905587056,4317.0
98.922298325,4329.0
98.939009594,4392.0
98.955720863,4419.0
98.972432132,4424.0
98.989143401,4437.0
99.005854670,4350.0
99.022565939,4425.0
99.039277208,4304.0
99.055988477,4362.0
99.072699746,4356.0
99.089411015,4354.0
99.106122284,4364.0
99.122833553,4364.0
99.139544822,4299.0
99.156256091,4322.0
99.172967360,4491.0
99.189678629,4359.0
99.206389898,4496.0
99.223101167,4467.0
99.239812436,4340.0
99.256523705,4445.0
99.273234974,4448.0
99.289946243,4273.0
99.306657512,4428.0
99.323368781,4385.0
99.340080050,4412.0
99.356791319,4432.0
99.373502588,4337.0
99.390213857,4342.0
99.406925126,4462.0
99.423636395,4444.0
99.440347664,4282.0
99.457058933,4308.0
99.473770202,4374.0
99.490481471,4430.0
99.507192740,4237.0
99.523904009,4348.0
99.540615278,4371.0
99.557326547,4241.0
99.574037816,4354.0
99.590749084,4438.0
99.607460353,4391.0
99.624171622,4401.0
99.640882891,4381.0
99.657594160,4283.0
99.674305429,4429.0
99.691016698,4266.0
99.707727967,4193.0
99.724439236,4294.0
99.741150505,4269.0
99.757861774,4390.0
99.774573043,4308.0
99.791284312,4359.0
99.807995581,4496.0
99.824706850,4251.0
99.841418119,4376.0
99.858129388,4309.0
99.874840657,4373.0
99.891551926,4323.0
99.908263195,4195.0
99.924974464,4389.0
99.941685733,4388.0
99.958397002,4308.0
99.975108271,4522.0
99.991819540,4391.0
