[Measurement conditions]
Sample identification,
Comment - 1,"Configuration=MRI TC-Basic Stage, Owner=User-1, Creation date=26-10-2009 9:18:44"
Comment - 2,"Goniometer=PW3050/60 (Theta/Theta); Minimum step size 2Theta:0.001; Minimum step size Omega:0.001"
Comment - 3,"Sample stage=MRI TC-Basic (PtRh heat strip)"
Comment - 4,"Diffractometer system=XPERT-PRO"
Comment - 5,"Measurement program=FlatStage, Owner=joana, Creation date=03-08-2011 15:43:53"
Anode material,Cu
K-Alpha1 wavelength,1.5405980
K-Alpha2 wavelength,1.5444260
Ratio K-Alpha2/K-Alpha1,0.500
Divergence slit,Fixed,0.76mm
Monochromator used,NO
Generator voltage, 45
Tube current, 40
File date and time,06/Dec/2012 18:40
Unit cell,
h k l, 0 0 0
Temperature [K],302
Scan axis,Gonio
Scan range,29.999999996,95.023547594
Scan step size,0.0167113
No. of points, 3891
Scan type,CONTINUOUS
Time per step,19.685
[Scan points]
Angle,Intensity
30.008355630,1656.0
30.025066899,1635.0
30.041778168,1564.0
30.058489437,1711.0
30.075200706,1649.0
30.091911975,1686.0
30.108623244,1673.0
30.125334513,1704.0
30.142045782,1666.0
30.158757051,1633.0
30.175468320,1614.0
30.192179589,1737.0
30.208890858,1689.0
30.225602127,1688.0
30.242313396,1704.0
30.259024665,1622.0
30.275735934,1552.0
30.292447203,1613.0
30.309158472,1650.0
30.325869741,1704.0
30.342581010,1683.0
30.359292279,1689.0
30.376003548,1620.0
30.392714817,1628.0
30.409426086,1672.0
30.426137354,1611.0
30.442848623,1759.0
30.459559892,1670.0
30.476271161,1634.0
30.492982430,1672.0
30.509693699,1686.0
30.526404968,1672.0
30.543116237,1686.0
30.559827506,1607.0
30.576538775,1654.0
30.593250044,1614.0
30.609961313,1671.0
30.626672582,1613.0
30.643383851,1644.0
30.660095120,1645.0
30.676806389,1634.0
30.693517658,1574.0
30.710228927,1625.0
30.726940196,1670.0
30.743651465,1646.0
30.760362734,1681.0
30.777074003,1729.0
30.793785272,1670.0
30.810496541,1633.0
30.827207810,1614.0
30.843919079,1589.0
30.860630348,1688.0
30.877341617,1660.0
30.894052886,1640.0
30.910764155,1653.0
30.927475424,1593.0
30.944186693,1610.0
30.960897962,1631.0
30.977609231,1613.0
30.994320500,1653.0
31.011031769,1679.0
31.027743038,1684.0
31.044454307,1645.0
31.061165576,1635.0
31.077876845,1690.0
31.094588114,1634.0
31.111299383,1690.0
31.128010652,1615.0
31.144721921,1709.0
31.161433190,1571.0
31.178144459,1628.0
31.194855728,1656.0
31.211566997,1704.0
31.228278265,1683.0
31.244989534,1675.0
31.261700803,1633.0
31.278412072,1636.0
31.295123341,1640.0
31.311834610,1700.0
31.328545879,1599.0
31.345257148,1710.0
31.361968417,1607.0
31.378679686,1610.0
31.395390955,1623.0
31.412102224,1653.0
31.428813493,1684.0
31.445524762,1664.0
31.462236031,1584.0
31.478947300,1597.0
31.495658569,1650.0
31.512369838,1613.0
31.529081107,1602.0
31.545792376,1643.0
31.562503645,1734.0
31.579214914,1686.0
31.595926183,1667.0
31.612637452,1644.0
31.629348721,1603.0
31.646059990,1712.0
31.662771259,1676.0
31.679482528,1575.0
31.696193797,1603.0
31.712905066,1644.0
31.729616335,1687.0
31.746327604,1612.0
31.763038873,1618.0
31.779750142,1600.0
31.796461411,1616.0
31.813172680,1620.0
31.829883949,1698.0
31.846595218,1631.0
31.863306487,1685.0
31.880017756,1623.0
31.896729025,1661.0
31.913440294,1638.0
31.930151563,1708.0
31.946862832,1641.0
31.963574101,1670.0
31.980285370,1683.0
31.996996639,1654.0
32.013707908,1659.0
32.030419177,1701.0
32.047130445,1628.0
32.063841714,1665.0
32.080552983,1649.0
32.097264252,1619.0
32.113975521,1659.0
32.130686790,1640.0
32.147398059,1662.0
32.164109328,1628.0
32.180820597,1657.0
32.197531866,1624.0
32.214243135,1765.0
32.230954404,1681.0
32.247665673,1664.0
32.264376942,1678.0
32.281088211,1653.0
32.297799480,1618.0
32.314510749,1678.0
32.331222018,1625.0
32.347933287,1690.0
32.364644556,1645.0
32.381355825,1670.0
32.398067094,1602.0
32.414778363,1670.0
32.431489632,1651.0
32.448200901,1608.0
32.464912170,1669.0
32.481623439,1634.0
32.498334708,1598.0
32.515045977,1571.0
32.531757246,1622.0
32.548468515,1648.0
32.565179784,1684.0
32.581891053,1648.0
32.598602322,1659.0
32.615313591,1675.0
32.632024860,1606.0
32.648736129,1735.0
32.665447398,1641.0
32.682158667,1634.0
32.698869936,1619.0
32.715581205,1677.0
32.732292474,1619.0
32.749003743,1670.0
32.765715012,1658.0
32.782426281,1644.0
32.799137550,1598.0
32.815848819,1650.0
32.832560088,1703.0
32.849271357,1572.0
32.865982625,1646.0
32.882693894,1691.0
32.899405163,1649.0
32.916116432,1663.0
32.932827701,1730.0
32.949538970,1623.0
32.966250239,1643.0
32.982961508,1587.0
32.999672777,1666.0
33.016384046,1628.0
33.033095315,1639.0
33.049806584,1636.0
33.066517853,1594.0
33.083229122,1702.0
33.099940391,1657.0
33.116651660,1663.0
33.133362929,1648.0
33.150074198,1592.0
33.166785467,1621.0
33.183496736,1662.0
33.200208005,1558.0
33.216919274,1697.0
33.233630543,1627.0
33.250341812,1637.0
33.267053081,1635.0
33.283764350,1638.0
33.300475619,1593.0
33.317186888,1627.0
33.333898157,1661.0
33.350609426,1690.0
33.367320695,1624.0
33.384031964,1644.0
33.400743233,1663.0
33.417454502,1674.0
33.434165771,1631.0
33.450877040,1612.0
33.467588309,1661.0
33.484299578,1634.0
33.501010847,1596.0
33.517722116,1705.0
33.534433385,1661.0
33.551144654,1608.0
33.567855923,1634.0
33.584567192,1679.0
33.601278461,1681.0
33.617989730,1701.0
33.634700999,1651.0
33.651412268,1699.0
33.668123536,1636.0
33.684834805,1563.0
33.701546074,1701.0
33.718257343,1671.0
33.734968612,1626.0
33.751679881,1675.0
33.768391150,1637.0
33.785102419,1662.0
33.801813688,1600.0
33.818524957,1669.0
33.835236226,1710.0
33.851947495,1639.0
33.868658764,1656.0
33.885370033,1652.0
33.902081302,1638.0
33.918792571,1633.0
33.935503840,1632.0
33.952215109,1653.0
33.968926378,1673.0
33.985637647,1737.0
34.002348916,1703.0
34.019060185,1622.0
34.035771454,1638.0
34.052482723,1594.0
34.069193992,1659.0
34.085905261,1585.0
34.102616530,1690.0
34.119327799,1638.0
34.136039068,1686.0
34.152750337,1614.0
34.169461606,1637.0
34.186172875,1677.0
34.202884144,1616.0
34.219595413,1681.0
34.236306682,1709.0
34.253017951,1659.0
34.269729220,1626.0
34.286440489,1575.0
34.303151758,1565.0
34.319863027,1648.0
34.336574296,1697.0
34.353285565,1640.0
34.369996834,1656.0
34.386708103,1660.0
34.403419372,1582.0
34.420130641,1645.0
34.436841910,1672.0
34.453553179,1652.0
34.470264448,1644.0
34.486975716,1625.0
34.503686985,1681.0
34.520398254,1640.0
34.537109523,1677.0
34.553820792,1634.0
34.570532061,1601.0
34.587243330,1659.0
34.603954599,1588.0
34.620665868,1663.0
34.637377137,1648.0
34.654088406,1616.0
34.670799675,1662.0
34.687510944,1628.0
34.704222213,1671.0
34.720933482,1633.0
34.737644751,1725.0
34.754356020,1633.0
34.771067289,1635.0
34.787778558,1659.0
34.804489827,1585.0
34.821201096,1582.0
34.837912365,1628.0
34.854623634,1671.0
34.871334903,1638.0
34.888046172,1653.0
34.904757441,1621.0
34.921468710,1613.0
34.938179979,1669.0
34.954891248,1622.0
34.971602517,1657.0
34.988313786,1615.0
35.005025055,1643.0
35.021736324,1643.0
35.038447593,1675.0
35.055158862,1671.0
35.071870131,1622.0
35.088581400,1661.0
35.105292669,1691.0
35.122003938,1576.0
35.138715207,1633.0
35.155426476,1687.0
35.172137745,1677.0
35.188849014,1571.0
35.205560283,1659.0
35.222271552,1730.0
35.238982821,1709.0
35.255694090,1618.0
35.272405359,1652.0
35.289116628,1709.0
35.305827896,1613.0
35.322539165,1652.0
35.339250434,1631.0
35.355961703,1717.0
35.372672972,1683.0
35.389384241,1613.0
35.406095510,1622.0
35.422806779,1610.0
35.439518048,1567.0
35.456229317,1574.0
35.472940586,1687.0
35.489651855,1638.0
35.506363124,1682.0
35.523074393,1527.0
35.539785662,1659.0
35.556496931,1699.0
35.573208200,1673.0
35.589919469,1633.0
35.606630738,1618.0
35.623342007,1678.0
35.640053276,1627.0
35.656764545,1657.0
35.673475814,1614.0
35.690187083,1673.0
35.706898352,1727.0
35.723609621,1641.0
35.740320890,1584.0
35.757032159,1670.0
35.773743428,1734.0
35.790454697,1658.0
35.807165966,1659.0
35.823877235,1651.0
35.840588504,1633.0
35.857299773,1670.0
35.874011042,1619.0
35.890722311,1667.0
35.907433580,1651.0
35.924144849,1669.0
35.940856118,1710.0
35.957567387,1577.0
35.974278656,1686.0
35.990989925,1670.0
36.007701194,1741.0
36.024412463,1649.0
36.041123732,1633.0
36.057835001,1660.0
36.074546270,1618.0
36.091257539,1568.0
36.107968807,1644.0
36.124680076,1656.0
36.141391345,1675.0
36.158102614,1691.0
36.174813883,1663.0
36.191525152,1702.0
36.208236421,1688.0
36.224947690,1478.0
36.241658959,1582.0
36.258370228,1579.0
36.275081497,1586.0
36.291792766,1602.0
36.308504035,1542.0
36.325215304,1678.0
36.341926573,1640.0
36.358637842,1637.0
36.375349111,1652.0
36.392060380,1673.0
36.408771649,1663.0
36.425482918,1612.0
36.442194187,1631.0
36.458905456,1644.0
36.475616725,1636.0
36.492327994,1699.0
36.509039263,1625.0
36.525750532,1585.0
36.542461801,1662.0
36.559173070,1663.0
36.575884339,1669.0
36.592595608,1623.0
36.609306877,1708.0
36.626018146,1704.0
36.642729415,1626.0
36.659440684,1605.0
36.676151953,1612.0
36.692863222,1689.0
36.709574491,1595.0
36.726285760,1601.0
36.742997029,1572.0
36.759708298,1610.0
36.776419567,1647.0
36.793130836,1661.0
36.809842105,1662.0
36.826553374,1662.0
36.843264643,1651.0
36.859975912,1670.0
36.876687181,1662.0
36.893398450,1647.0
36.910109719,1727.0
36.926820987,1608.0
36.943532256,1600.0
36.960243525,1663.0
36.976954794,1742.0
36.993666063,1645.0
37.010377332,1661.0
37.027088601,1631.0
37.043799870,1663.0
37.060511139,1660.0
37.077222408,1662.0
37.093933677,1660.0
37.110644946,1550.0
37.127356215,1653.0
37.144067484,1739.0
37.160778753,1676.0
37.177490022,1613.0
37.194201291,1737.0
37.210912560,1700.0
37.227623829,1632.0
37.244335098,1552.0
37.261046367,1643.0
37.277757636,1711.0
37.294468905,1661.0
37.311180174,1612.0
37.327891443,1688.0
37.344602712,1711.0
37.361313981,1646.0
37.378025250,1594.0
37.394736519,1699.0
37.411447788,1644.0
37.428159057,1626.0
37.444870326,1581.0
37.461581595,1745.0
37.478292864,1613.0
37.495004133,1612.0
37.511715402,1679.0
37.528426671,1798.0
37.545137940,1694.0
37.561849209,1649.0
37.578560478,1647.0
37.595271747,1692.0
37.611983016,1669.0
37.628694285,1681.0
37.645405554,1651.0
37.662116823,1605.0
37.678828092,1749.0
37.695539361,1657.0
37.712250630,1678.0
37.728961898,1671.0
37.745673167,1641.0
37.762384436,1689.0
37.779095705,1736.0
37.795806974,1695.0
37.812518243,1621.0
37.829229512,1674.0
37.845940781,1686.0
37.862652050,1573.0
37.879363319,1626.0
37.896074588,1610.0
37.912785857,1704.0
37.929497126,1696.0
37.946208395,1634.0
37.962919664,1658.0
37.979630933,1661.0
37.996342202,1681.0
38.013053471,1718.0
38.029764740,1640.0
38.046476009,1686.0
38.063187278,1707.0
38.079898547,1641.0
38.096609816,1702.0
38.113321085,1698.0
38.130032354,1660.0
38.146743623,1658.0
38.163454892,1702.0
38.180166161,1694.0
38.196877430,1669.0
38.213588699,1639.0
38.230299968,1563.0
38.247011237,1675.0
38.263722506,1664.0
38.280433775,1733.0
38.297145044,1656.0
38.313856313,1661.0
38.330567582,1729.0
38.347278851,1699.0
38.363990120,1664.0
38.380701389,1643.0
38.397412658,1621.0
38.414123927,1624.0
38.430835196,1650.0
38.447546465,1688.0
38.464257734,1772.0
38.480969003,1652.0
38.497680272,1725.0
38.514391541,1622.0
38.531102810,1743.0
38.547814078,1701.0
38.564525347,1588.0
38.581236616,1664.0
38.597947885,1702.0
38.614659154,1657.0
38.631370423,1692.0
38.648081692,1641.0
38.664792961,1727.0
38.681504230,1742.0
38.698215499,1705.0
38.714926768,1708.0
38.731638037,1841.0
38.748349306,1812.0
38.765060575,1866.0
38.781771844,1992.0
38.798483113,2068.0
38.815194382,2039.0
38.831905651,1944.0
38.848616920,1919.0
38.865328189,1761.0
38.882039458,1748.0
38.898750727,1699.0
38.915461996,1772.0
38.932173265,1714.0
38.948884534,1618.0
38.965595803,1687.0
38.982307072,1694.0
38.999018341,1573.0
39.015729610,1771.0
39.032440879,1657.0
39.049152148,1727.0
39.065863417,1696.0
39.082574686,1734.0
39.099285955,1662.0
39.115997224,1690.0
39.132708493,1681.0
39.149419762,1684.0
39.166131031,1786.0
39.182842300,1670.0
39.199553569,1660.0
39.216264838,1671.0
39.232976107,1702.0
39.249687376,1785.0
39.266398645,1622.0
39.283109914,1698.0
39.299821183,1646.0
39.316532452,1733.0
39.333243721,1712.0
39.349954990,1729.0
39.366666258,1614.0
39.383377527,1759.0
39.400088796,1694.0
39.416800065,1657.0
39.433511334,1691.0
39.450222603,1755.0
39.466933872,1723.0
39.483645141,1646.0
39.500356410,1671.0
39.517067679,1735.0
39.533778948,1659.0
39.550490217,1656.0
39.567201486,1758.0
39.583912755,1764.0
39.600624024,1733.0
39.617335293,1664.0
39.634046562,1721.0
39.650757831,1703.0
39.667469100,1695.0
39.684180369,1776.0
39.700891638,1666.0
39.717602907,1682.0
39.734314176,1651.0
39.751025445,1660.0
39.767736714,1641.0
39.784447983,1672.0
39.801159252,1758.0
39.817870521,1714.0
39.834581790,1649.0
39.851293059,1694.0
39.868004328,1671.0
39.884715597,1592.0
39.901426866,1678.0
39.918138135,1657.0
39.934849404,1704.0
39.951560673,1638.0
39.968271942,1800.0
39.984983211,1622.0
40.001694480,1705.0
40.018405749,1733.0
40.035117018,1644.0
40.051828287,1662.0
40.068539556,1721.0
40.085250825,1679.0
40.101962094,1707.0
40.118673363,1681.0
40.135384632,1651.0
40.152095901,1691.0
40.168807169,1689.0
40.185518438,1639.0
40.202229707,1609.0
40.218940976,1679.0
40.235652245,1683.0
40.252363514,1755.0
40.269074783,1673.0
40.285786052,1596.0
40.302497321,1633.0
40.319208590,1666.0
40.335919859,1760.0
40.352631128,1704.0
40.369342397,1657.0
40.386053666,1653.0
40.402764935,1673.0
40.419476204,1718.0
40.436187473,1714.0
40.452898742,1658.0
40.469610011,1619.0
40.486321280,1624.0
40.503032549,1711.0
40.519743818,1592.0
40.536455087,1641.0
40.553166356,1662.0
40.569877625,1674.0
40.586588894,1677.0
40.603300163,1695.0
40.620011432,1694.0
40.636722701,1648.0
40.653433970,1661.0
40.670145239,1699.0
40.686856508,1684.0
40.703567777,1631.0
40.720279046,1646.0
40.736990315,1666.0
40.753701584,1671.0
40.770412853,1621.0
40.787124122,1568.0
40.803835391,1624.0
40.820546660,1716.0
40.837257929,1643.0
40.853969198,1686.0
40.870680467,1729.0
40.887391736,1761.0
40.904103005,1637.0
40.920814274,1663.0
40.937525543,1705.0
40.954236812,1690.0
40.970948081,1700.0
40.987659349,1771.0
41.004370618,1730.0
41.021081887,1725.0
41.037793156,1672.0
41.054504425,1678.0
41.071215694,1661.0
41.087926963,1696.0
41.104638232,1625.0
41.121349501,1674.0
41.138060770,1684.0
41.154772039,1724.0
41.171483308,1630.0
41.188194577,1684.0
41.204905846,1716.0
41.221617115,1616.0
41.238328384,1718.0
41.255039653,1709.0
41.271750922,1708.0
41.288462191,1705.0
41.305173460,1801.0
41.321884729,1716.0
41.338595998,1736.0
41.355307267,1710.0
41.372018536,1658.0
41.388729805,1729.0
41.405441074,1660.0
41.422152343,1694.0
41.438863612,1652.0
41.455574881,1691.0
41.472286150,1729.0
41.488997419,1718.0
41.505708688,1733.0
41.522419957,1797.0
41.539131226,1608.0
41.555842495,1747.0
41.572553764,1775.0
41.589265033,1870.0
41.605976302,1842.0
41.622687571,1866.0
41.639398840,2021.0
41.656110109,2038.0
41.672821378,1968.0
41.689532647,2005.0
41.706243916,1992.0
41.722955185,2059.0
41.739666454,2040.0
41.756377723,2008.0
41.773088992,1987.0
41.789800261,2071.0
41.806511529,2072.0
41.823222798,2004.0
41.839934067,2080.0
41.856645336,2019.0
41.873356605,1967.0
41.890067874,2104.0
41.906779143,2041.0
41.923490412,2008.0
41.940201681,1967.0
41.956912950,2031.0
41.973624219,2052.0
41.990335488,2007.0
42.007046757,2027.0
42.023758026,2041.0
42.040469295,2006.0
42.057180564,2031.0
42.073891833,2001.0
42.090603102,2040.0
42.107314371,2111.0
42.124025640,2054.0
42.140736909,1976.0
42.157448178,2129.0
42.174159447,2036.0
42.190870716,2093.0
42.207581985,2127.0
42.224293254,2027.0
42.241004523,2205.0
42.257715792,2163.0
42.274427061,2094.0
42.291138330,2175.0
42.307849599,2065.0
42.324560868,2085.0
42.341272137,2063.0
42.357983406,2140.0
42.374694675,2015.0
42.391405944,2074.0
42.408117213,2104.0
42.424828482,2096.0
42.441539751,2161.0
42.458251020,2084.0
42.474962289,2130.0
42.491673558,2046.0
42.508384827,2170.0
42.525096096,2106.0
42.541807365,2117.0
42.558518634,2150.0
42.575229903,2142.0
42.591941172,2181.0
42.608652440,2208.0
42.625363709,2213.0
42.642074978,2325.0
42.658786247,2293.0
42.675497516,2380.0
42.692208785,2257.0
42.708920054,2375.0
42.725631323,2372.0
42.742342592,2439.0
42.759053861,2487.0
42.775765130,2560.0
42.792476399,2700.0
42.809187668,2906.0
42.825898937,3127.0
42.842610206,3409.0
42.859321475,3709.0
42.876032744,3970.0
42.892744013,4317.0
42.909455282,4918.0
42.926166551,5401.0
42.942877820,5815.0
42.959589089,6482.0
42.976300358,6992.0
42.993011627,7485.0
43.009722896,8270.0
43.026434165,9771.0
43.043145434,12195.0
43.059856703,16142.0
43.076567972,23037.0
43.093279241,34166.0
43.109990510,52914.0
43.126701779,86539.0
43.143413048,137945.0
43.160124317,176515.0
43.176835586,148143.0
43.193546855,89378.0
43.210258124,53142.0
43.226969393,45825.0
43.243680662,57769.0
43.260391931,79910.0
43.277103200,90765.0
43.293814469,69059.0
43.310525738,38641.0
43.327237007,20452.0
43.343948276,12299.0
43.360659545,9074.0
43.377370814,7411.0
43.394082083,6005.0
43.410793352,5336.0
43.427504620,4792.0
43.444215889,4343.0
43.460927158,4083.0
43.477638427,3812.0
43.494349696,3440.0
43.511060965,3159.0
43.527772234,2920.0
43.544483503,2859.0
43.561194772,2723.0
43.577906041,2667.0
43.594617310,2567.0
43.611328579,2628.0
43.628039848,2511.0
43.644751117,2490.0
43.661462386,2488.0
43.678173655,2417.0
43.694884924,2346.0
43.711596193,2287.0
43.728307462,2265.0
43.745018731,2229.0
43.761730000,2256.0
43.778441269,2213.0
43.795152538,2185.0
43.811863807,2178.0
43.828575076,2226.0
43.845286345,2078.0
43.861997614,2197.0
43.878708883,2132.0
43.895420152,2172.0
43.912131421,2206.0
43.928842690,2138.0
43.945553959,2089.0
43.962265228,2051.0
43.978976497,2072.0
43.995687766,2032.0
44.012399035,2093.0
44.029110304,1995.0
44.045821573,2039.0
44.062532842,2042.0
44.079244111,2115.0
44.095955380,2000.0
44.112666649,2019.0
44.129377918,2095.0
44.146089187,2003.0
44.162800456,2033.0
44.179511725,2002.0
44.196222994,1924.0
44.212934263,1991.0
44.229645531,2078.0
44.246356800,1963.0
44.263068069,1998.0
44.279779338,1977.0
44.296490607,2072.0
44.313201876,1967.0
44.329913145,2012.0
44.346624414,1893.0
44.363335683,1967.0
44.380046952,1957.0
44.396758221,1891.0
44.413469490,1965.0
44.430180759,1957.0
44.446892028,1977.0
44.463603297,1928.0
44.480314566,1972.0
44.497025835,1899.0
44.513737104,1963.0
44.530448373,1898.0
44.547159642,1984.0
44.563870911,1991.0
44.580582180,1874.0
44.597293449,1860.0
44.614004718,1963.0
44.630715987,1945.0
44.647427256,1966.0
44.664138525,1966.0
44.680849794,1964.0
44.697561063,1900.0
44.714272332,1916.0
44.730983601,1908.0
44.747694870,1941.0
44.764406139,1938.0
44.781117408,1908.0
44.797828677,1958.0
44.814539946,1996.0
44.831251215,1964.0
44.847962484,1858.0
44.864673753,1887.0
44.881385022,1921.0
44.898096291,1898.0
44.914807560,1892.0
44.931518829,1913.0
44.948230098,1889.0
44.964941367,1916.0
44.981652636,1954.0
44.998363905,1847.0
45.015075174,1886.0
45.031786443,1963.0
45.048497711,2012.0
45.065208980,1949.0
45.081920249,1988.0
45.098631518,2026.0
45.115342787,2078.0
45.132054056,2112.0
45.148765325,2162.0
45.165476594,2146.0
45.182187863,2041.0
45.198899132,2012.0
45.215610401,1956.0
45.232321670,1947.0
45.249032939,1862.0
45.265744208,1909.0
45.282455477,1847.0
45.299166746,1907.0
45.315878015,1806.0
45.332589284,1904.0
45.349300553,1930.0
45.366011822,1915.0
45.382723091,1819.0
45.399434360,1941.0
45.416145629,1877.0
45.432856898,1899.0
45.449568167,1824.0
45.466279436,1796.0
45.482990705,1839.0
45.499701974,1845.0
45.516413243,1840.0
45.533124512,1867.0
45.549835781,1877.0
45.566547050,1905.0
45.583258319,1917.0
45.599969588,1810.0
45.616680857,1819.0
45.633392126,1818.0
45.650103395,1758.0
45.666814664,1821.0
45.683525933,1866.0
45.700237202,1877.0
45.716948471,1874.0
45.733659740,1774.0
45.750371009,1854.0
45.767082278,1835.0
45.783793547,1882.0
45.800504816,1797.0
45.817216085,1838.0
45.833927354,1788.0
45.850638623,1823.0
45.867349891,1835.0
45.884061160,1825.0
45.900772429,1792.0
45.917483698,1720.0
45.934194967,1776.0
45.950906236,1888.0
45.967617505,1803.0
45.984328774,1850.0
46.001040043,1787.0
46.017751312,1919.0
46.034462581,1793.0
46.051173850,1768.0
46.067885119,1776.0
46.084596388,1770.0
46.101307657,1790.0
46.118018926,1880.0
46.134730195,1792.0
46.151441464,1774.0
46.168152733,1821.0
46.184864002,1868.0
46.201575271,1787.0
46.218286540,1783.0
46.234997809,1831.0
46.251709078,1834.0
46.268420347,1754.0
46.285131616,1786.0
46.301842885,1834.0
46.318554154,1861.0
46.335265423,1829.0
46.351976692,1836.0
46.368687961,1831.0
46.385399230,1725.0
46.402110499,1852.0
46.418821768,1852.0
46.435533037,1803.0
46.452244306,1847.0
46.468955575,1925.0
46.485666844,1901.0
46.502378113,1862.0
46.519089382,1879.0
46.535800651,1923.0
46.552511920,1981.0
46.569223189,1840.0
46.585934458,1821.0
46.602645727,1772.0
46.619356996,1851.0
46.636068265,1985.0
46.652779534,1882.0
46.669490802,1807.0
46.686202071,1881.0
46.702913340,1873.0
46.719624609,1926.0
46.736335878,1789.0
46.753047147,1783.0
46.769758416,1786.0
46.786469685,1775.0
46.803180954,1828.0
46.819892223,1793.0
46.836603492,1840.0
46.853314761,1961.0
46.870026030,2035.0
46.886737299,2006.0
46.903448568,2023.0
46.920159837,2042.0
46.936871106,1989.0
46.953582375,1963.0
46.970293644,1946.0
46.987004913,1945.0
47.003716182,1965.0
47.020427451,1955.0
47.037138720,1893.0
47.053849989,1781.0
47.070561258,1856.0
47.087272527,1725.0
47.103983796,1803.0
47.120695065,1753.0
47.137406334,1792.0
47.154117603,1787.0
47.170828872,1801.0
47.187540141,1793.0
47.204251410,1829.0
47.220962679,1776.0
47.237673948,1767.0
47.254385217,1805.0
47.271096486,1816.0
47.287807755,1817.0
47.304519024,1764.0
47.321230293,1837.0
47.337941562,1797.0
47.354652831,1827.0
47.371364100,1774.0
47.388075369,1849.0
47.404786638,1770.0
47.421497907,1716.0
47.438209176,1739.0
47.454920445,1789.0
47.471631714,1714.0
47.488342982,1883.0
47.505054251,1737.0
47.521765520,1716.0
47.538476789,1796.0
47.555188058,1814.0
47.571899327,1786.0
47.588610596,1707.0
47.605321865,1784.0
47.622033134,1764.0
47.638744403,1776.0
47.655455672,1878.0
47.672166941,1786.0
47.688878210,1754.0
47.705589479,1749.0
47.722300748,1821.0
47.739012017,1692.0
47.755723286,1725.0
47.772434555,1692.0
47.789145824,1806.0
47.805857093,1745.0
47.822568362,1765.0
47.839279631,1856.0
47.855990900,1767.0
47.872702169,1763.0
47.889413438,1684.0
47.906124707,1742.0
47.922835976,1771.0
47.939547245,1841.0
47.956258514,1765.0
47.972969783,1773.0
47.989681052,1766.0
48.006392321,1728.0
48.023103590,1774.0
48.039814859,1701.0
48.056526128,1796.0
48.073237397,1714.0
48.089948666,1688.0
48.106659935,1739.0
48.123371204,1761.0
48.140082473,1728.0
48.156793742,1847.0
48.173505011,1788.0
48.190216280,1730.0
48.206927549,1777.0
48.223638818,1771.0
48.240350087,1776.0
48.257061356,1722.0
48.273772625,1745.0
48.290483894,1750.0
48.307195162,1831.0
48.323906431,1823.0
48.340617700,1799.0
48.357328969,1829.0
48.374040238,1730.0
48.390751507,1712.0
48.407462776,1836.0
48.424174045,1848.0
48.440885314,1907.0
48.457596583,1916.0
48.474307852,1993.0
48.491019121,2019.0
48.507730390,1969.0
48.524441659,1898.0
48.541152928,1939.0
48.557864197,1950.0
48.574575466,2064.0
48.591286735,2007.0
48.607998004,1993.0
48.624709273,1982.0
48.641420542,2067.0
48.658131811,1939.0
48.674843080,1965.0
48.691554349,1938.0
48.708265618,1970.0
48.724976887,2013.0
48.741688156,1989.0
48.758399425,1921.0
48.775110694,1927.0
48.791821963,1822.0
48.808533232,1963.0
48.825244501,1990.0
48.841955770,1914.0
48.858667039,1914.0
48.875378308,1952.0
48.892089577,2053.0
48.908800846,1996.0
48.925512115,1950.0
48.942223384,2003.0
48.958934653,1994.0
48.975645922,1974.0
48.992357191,2099.0
49.009068460,1981.0
49.025779729,2038.0
49.042490998,2083.0
49.059202267,2059.0
49.075913536,2018.0
49.092624805,2069.0
49.109336073,2078.0
49.126047342,2094.0
49.142758611,2138.0
49.159469880,2032.0
49.176181149,2057.0
49.192892418,2162.0
49.209603687,2051.0
49.226314956,2081.0
49.243026225,2004.0
49.259737494,1963.0
49.276448763,1974.0
49.293160032,2000.0
49.309871301,2010.0
49.326582570,2073.0
49.343293839,1993.0
49.360005108,2079.0
49.376716377,2058.0
49.393427646,1998.0
49.410138915,2085.0
49.426850184,2044.0
49.443561453,2039.0
49.460272722,2092.0
49.476983991,2033.0
49.493695260,2064.0
49.510406529,2012.0
49.527117798,2061.0
49.543829067,2140.0
49.560540336,2095.0
49.577251605,2148.0
49.593962874,2055.0
49.610674143,2118.0
49.627385412,2144.0
49.644096681,2107.0
49.660807950,2125.0
49.677519219,2183.0
49.694230488,2141.0
49.710941757,2182.0
49.727653026,2119.0
49.744364295,2232.0
49.761075564,2276.0
49.777786833,2291.0
49.794498102,2287.0
49.811209371,2268.0
49.827920640,2366.0
49.844631909,2387.0
49.861343178,2519.0
49.878054447,2554.0
49.894765716,2588.0
49.911476985,2598.0
49.928188253,2786.0
49.944899522,2902.0
49.961610791,3156.0
49.978322060,3503.0
49.995033329,3850.0
50.011744598,4266.0
50.028455867,4744.0
50.045167136,5148.0
50.061878405,5457.0
50.078589674,5897.0
50.095300943,6200.0
50.112012212,6460.0
50.128723481,7048.0
50.145434750,7900.0
50.162146019,9527.0
50.178857288,11862.0
50.195568557,15621.0
50.212279826,22007.0
50.228991095,32907.0
50.245702364,50395.0
50.262413633,76826.0
50.279124902,112830.0
50.295836171,135207.0
50.312547440,117648.0
50.329258709,79568.0
50.345969978,50547.0
50.362681247,37238.0
50.379392516,37799.0
50.396103785,46498.0
50.412815054,61205.0
50.429526323,70511.0
50.446237592,61730.0
50.462948861,42294.0
50.479660130,25631.0
50.496371399,15742.0
50.513082668,10732.0
50.529793937,8079.0
50.546505206,6515.0
50.563216475,5722.0
50.579927744,4911.0
50.596639013,4390.0
50.613350282,3984.0
50.630061551,3729.0
50.646772820,3441.0
50.663484089,3265.0
50.680195358,2980.0
50.696906627,2851.0
50.713617896,2787.0
50.730329164,2570.0
50.747040433,2656.0
50.763751702,2563.0
50.780462971,2532.0
50.797174240,2489.0
50.813885509,2430.0
50.830596778,2287.0
50.847308047,2372.0
50.864019316,2212.0
50.880730585,2277.0
50.897441854,2270.0
50.914153123,2224.0
50.930864392,2245.0
50.947575661,2107.0
50.964286930,2115.0
50.980998199,2172.0
50.997709468,2009.0
51.014420737,2079.0
51.031132006,2017.0
51.047843275,2153.0
51.064554544,2063.0
51.081265813,2116.0
51.097977082,2072.0
51.114688351,2021.0
51.131399620,2020.0
51.148110889,2030.0
51.164822158,1977.0
51.181533427,2012.0
51.198244696,1990.0
51.214955965,1923.0
51.231667234,2013.0
51.248378503,1944.0
51.265089772,1970.0
51.281801041,1918.0
51.298512310,1995.0
51.315223579,1964.0
51.331934848,1978.0
51.348646117,1929.0
51.365357386,1908.0
51.382068655,1920.0
51.398779924,1789.0
51.415491193,1900.0
51.432202462,1878.0
51.448913731,1926.0
51.465625000,1929.0
51.482336269,1879.0
51.499047538,1879.0
51.515758807,1927.0
51.532470076,1889.0
51.549181344,1878.0
51.565892613,1854.0
51.582603882,1934.0
51.599315151,1913.0
51.616026420,1908.0
51.632737689,1839.0
51.649448958,1901.0
51.666160227,1883.0
51.682871496,1791.0
51.699582765,1854.0
51.716294034,1872.0
51.733005303,1931.0
51.749716572,1862.0
51.766427841,1864.0
51.783139110,1867.0
51.799850379,1870.0
51.816561648,1855.0
51.833272917,1855.0
51.849984186,1832.0
51.866695455,1856.0
51.883406724,1764.0
51.900117993,1853.0
51.916829262,1832.0
51.933540531,1823.0
51.950251800,1841.0
51.966963069,1830.0
51.983674338,1851.0
52.000385607,1780.0
52.017096876,1848.0
52.033808145,1827.0
52.050519414,1852.0
52.067230683,1765.0
52.083941952,1804.0
52.100653221,1817.0
52.117364490,1847.0
52.134075759,1794.0
52.150787028,1842.0
52.167498297,1825.0
52.184209566,1810.0
52.200920835,1848.0
52.217632104,1742.0
52.234343373,1893.0
52.251054642,1915.0
52.267765911,1847.0
52.284477180,1762.0
52.301188449,1763.0
52.317899718,1852.0
52.334610987,1817.0
52.351322256,1836.0
52.368033524,1771.0
52.384744793,1773.0
52.401456062,1809.0
52.418167331,1850.0
52.434878600,1855.0
52.451589869,1840.0
52.468301138,1783.0
52.485012407,1781.0
52.501723676,1793.0
52.518434945,1807.0
52.535146214,1702.0
52.551857483,1804.0
52.568568752,1837.0
52.585280021,1841.0
52.601991290,1810.0
52.618702559,1790.0
52.635413828,1834.0
52.652125097,1777.0
52.668836366,1805.0
52.685547635,1794.0
52.702258904,1849.0
52.718970173,1816.0
52.735681442,1856.0
52.752392711,1755.0
52.769103980,1771.0
52.785815249,1793.0
52.802526518,1821.0
52.819237787,1842.0
52.835949056,1799.0
52.852660325,1749.0
52.869371594,1806.0
52.886082863,1740.0
52.902794132,1748.0
52.919505401,1787.0
52.936216670,1807.0
52.952927939,1747.0
52.969639208,1805.0
52.986350477,1767.0
53.003061746,1804.0
53.019773015,1750.0
53.036484284,1722.0
53.053195553,1758.0
53.069906822,1834.0
53.086618091,1751.0
53.103329360,1708.0
53.120040629,1794.0
53.136751898,1754.0
53.153463167,1708.0
53.170174435,1825.0
53.186885704,1784.0
53.203596973,1772.0
53.220308242,1727.0
53.237019511,1716.0
53.253730780,1774.0
53.270442049,1799.0
53.287153318,1758.0
53.303864587,1764.0
53.320575856,1783.0
53.337287125,1705.0
53.353998394,1779.0
53.370709663,1678.0
53.387420932,1770.0
53.404132201,1742.0
53.420843470,1715.0
53.437554739,1796.0
53.454266008,1743.0
53.470977277,1624.0
53.487688546,1776.0
53.504399815,1842.0
53.521111084,1703.0
53.537822353,1806.0
53.554533622,1785.0
53.571244891,1766.0
53.587956160,1673.0
53.604667429,1727.0
53.621378698,1742.0
53.638089967,1667.0
53.654801236,1713.0
53.671512505,1775.0
53.688223774,1743.0
53.704935043,1736.0
53.721646312,1717.0
53.738357581,1756.0
53.755068850,1730.0
53.771780119,1759.0
53.788491388,1765.0
53.805202657,1826.0
53.821913926,1746.0
53.838625195,1801.0
53.855336464,1673.0
53.872047733,1776.0
53.888759002,1711.0
53.905470271,1682.0
53.922181540,1738.0
53.938892809,1765.0
53.955604078,1698.0
53.972315347,1689.0
53.989026615,1652.0
54.005737884,1652.0
54.022449153,1738.0
54.039160422,1750.0
54.055871691,1718.0
54.072582960,1721.0
54.089294229,1760.0
54.106005498,1632.0
54.122716767,1732.0
54.139428036,1707.0
54.156139305,1682.0
54.172850574,1778.0
54.189561843,1686.0
54.206273112,1714.0
54.222984381,1681.0
54.239695650,1788.0
54.256406919,1767.0
54.273118188,1718.0
54.289829457,1742.0
54.306540726,1726.0
54.323251995,1714.0
54.339963264,1646.0
54.356674533,1774.0
54.373385802,1778.0
54.390097071,1656.0
54.406808340,1760.0
54.423519609,1721.0
54.440230878,1764.0
54.456942147,1838.0
54.473653416,1750.0
54.490364685,1691.0
54.507075954,1797.0
54.523787223,1834.0
54.540498492,1710.0
54.557209761,1784.0
54.573921030,1770.0
54.590632299,1736.0
54.607343568,1707.0
54.624054837,1759.0
54.640766106,1831.0
54.657477375,1867.0
54.674188644,1881.0
54.690899913,1941.0
54.707611182,1864.0
54.724322451,1799.0
54.741033720,1835.0
54.757744989,1816.0
54.774456258,1708.0
54.791167527,1822.0
54.807878795,1774.0
54.824590064,1832.0
54.841301333,1850.0
54.858012602,1768.0
54.874723871,1777.0
54.891435140,1727.0
54.908146409,1717.0
54.924857678,1632.0
54.941568947,1621.0
54.958280216,1687.0
54.974991485,1735.0
54.991702754,1712.0
55.008414023,1751.0
55.025125292,1701.0
55.041836561,1711.0
55.058547830,1810.0
55.075259099,1685.0
55.091970368,1712.0
55.108681637,1738.0
55.125392906,1720.0
55.142104175,1756.0
55.158815444,1648.0
55.175526713,1743.0
55.192237982,1683.0
55.208949251,1640.0
55.225660520,1678.0
55.242371789,1758.0
55.259083058,1707.0
55.275794327,1671.0
55.292505596,1687.0
55.309216865,1695.0
55.325928134,1656.0
55.342639403,1694.0
55.359350672,1722.0
55.376061941,1625.0
55.392773210,1612.0
55.409484479,1770.0
55.426195748,1644.0
55.442907017,1767.0
55.459618286,1698.0
55.476329555,1742.0
55.493040824,1638.0
55.509752093,1576.0
55.526463362,1669.0
55.543174631,1715.0
55.559885900,1665.0
55.576597169,1718.0
55.593308438,1616.0
55.610019706,1717.0
55.626730975,1638.0
55.643442244,1703.0
55.660153513,1657.0
55.676864782,1720.0
55.693576051,1688.0
55.710287320,1627.0
55.726998589,1665.0
55.743709858,1665.0
55.760421127,1635.0
55.777132396,1732.0
55.793843665,1653.0
55.810554934,1711.0
55.827266203,1677.0
55.843977472,1571.0
55.860688741,1615.0
55.877400010,1631.0
55.894111279,1696.0
55.910822548,1788.0
55.927533817,1660.0
55.944245086,1669.0
55.960956355,1670.0
55.977667624,1558.0
55.994378893,1643.0
56.011090162,1664.0
56.027801431,1694.0
56.044512700,1726.0
56.061223969,1717.0
56.077935238,1689.0
56.094646507,1632.0
56.111357776,1658.0
56.128069045,1692.0
56.144780314,1713.0
56.161491583,1613.0
56.178202852,1667.0
56.194914121,1720.0
56.211625390,1659.0
56.228336659,1599.0
56.245047928,1614.0
56.261759197,1615.0
56.278470466,1676.0
56.295181735,1625.0
56.311893004,1661.0
56.328604273,1624.0
56.345315542,1705.0
56.362026811,1675.0
56.378738080,1729.0
56.395449349,1601.0
56.412160618,1694.0
56.428871886,1605.0
56.445583155,1721.0
56.462294424,1699.0
56.479005693,1691.0
56.495716962,1698.0
56.512428231,1720.0
56.529139500,1594.0
56.545850769,1634.0
56.562562038,1694.0
56.579273307,1712.0
56.595984576,1622.0
56.612695845,1612.0
56.629407114,1751.0
56.646118383,1695.0
56.662829652,1692.0
56.679540921,1765.0
56.696252190,1657.0
56.712963459,1632.0
56.729674728,1741.0
56.746385997,1682.0
56.763097266,1588.0
56.779808535,1678.0
56.796519804,1717.0
56.813231073,1674.0
56.829942342,1695.0
56.846653611,1705.0
56.863364880,1750.0
56.880076149,1685.0
56.896787418,1761.0
56.913498687,1720.0
56.930209956,1713.0
56.946921225,1709.0
56.963632494,1697.0
56.980343763,1628.0
56.997055032,1651.0
57.013766301,1673.0
57.030477570,1699.0
57.047188839,1695.0
57.063900108,1647.0
57.080611377,1703.0
57.097322646,1708.0
57.114033915,1586.0
57.130745184,1592.0
57.147456453,1717.0
57.164167722,1657.0
57.180878991,1726.0
57.197590260,1606.0
57.214301529,1703.0
57.231012797,1570.0
57.247724066,1633.0
57.264435335,1718.0
57.281146604,1699.0
57.297857873,1637.0
57.314569142,1641.0
57.331280411,1705.0
57.347991680,1653.0
57.364702949,1632.0
57.381414218,1625.0
57.398125487,1717.0
57.414836756,1718.0
57.431548025,1677.0
57.448259294,1698.0
57.464970563,1666.0
57.481681832,1615.0
57.498393101,1690.0
57.515104370,1664.0
57.531815639,1599.0
57.548526908,1661.0
57.565238177,1674.0
57.581949446,1648.0
57.598660715,1698.0
57.615371984,1685.0
57.632083253,1659.0
57.648794522,1671.0
57.665505791,1658.0
57.682217060,1628.0
57.698928329,1648.0
57.715639598,1690.0
57.732350867,1641.0
57.749062136,1646.0
57.765773405,1641.0
57.782484674,1590.0
57.799195943,1759.0
57.815907212,1606.0
57.832618481,1646.0
57.849329750,1651.0
57.866041019,1685.0
57.882752288,1613.0
57.899463557,1646.0
57.916174826,1600.0
57.932886095,1692.0
57.949597364,1609.0
57.966308633,1656.0
57.983019902,1662.0
57.999731171,1707.0
58.016442440,1651.0
58.033153709,1670.0
58.049864977,1619.0
58.066576246,1643.0
58.083287515,1692.0
58.099998784,1639.0
58.116710053,1636.0
58.133421322,1640.0
58.150132591,1637.0
58.166843860,1630.0
58.183555129,1663.0
58.200266398,1705.0
58.216977667,1747.0
58.233688936,1648.0
58.250400205,1681.0
58.267111474,1674.0
58.283822743,1721.0
58.300534012,1660.0
58.317245281,1601.0
58.333956550,1658.0
58.350667819,1670.0
58.367379088,1638.0
58.384090357,1613.0
58.400801626,1607.0
58.417512895,1715.0
58.434224164,1630.0
58.450935433,1586.0
58.467646702,1630.0
58.484357971,1637.0
58.501069240,1614.0
58.517780509,1610.0
58.534491778,1712.0
58.551203047,1634.0
58.567914316,1640.0
58.584625585,1678.0
58.601336854,1583.0
58.618048123,1704.0
58.634759392,1681.0
58.651470661,1570.0
58.668181930,1631.0
58.684893199,1600.0
58.701604468,1636.0
58.718315737,1659.0
58.735027006,1623.0
58.751738275,1700.0
58.768449544,1689.0
58.785160813,1707.0
58.801872082,1569.0
58.818583351,1623.0
58.835294620,1609.0
58.852005889,1715.0
58.868717157,1702.0
58.885428426,1633.0
58.902139695,1592.0
58.918850964,1656.0
58.935562233,1659.0
58.952273502,1646.0
58.968984771,1681.0
58.985696040,1718.0
59.002407309,1619.0
59.019118578,1645.0
59.035829847,1616.0
59.052541116,1599.0
59.069252385,1687.0
59.085963654,1681.0
59.102674923,1663.0
59.119386192,1672.0
59.136097461,1669.0
59.152808730,1614.0
59.169519999,1577.0
59.186231268,1639.0
59.202942537,1716.0
59.219653806,1634.0
59.236365075,1682.0
59.253076344,1607.0
59.269787613,1686.0
59.286498882,1633.0
59.303210151,1632.0
59.319921420,1575.0
59.336632689,1634.0
59.353343958,1564.0
59.370055227,1562.0
59.386766496,1669.0
59.403477765,1648.0
59.420189034,1579.0
59.436900303,1660.0
59.453611572,1613.0
59.470322841,1592.0
59.487034110,1641.0
59.503745379,1671.0
59.520456648,1605.0
59.537167917,1621.0
59.553879186,1632.0
59.570590455,1616.0
59.587301724,1702.0
59.604012993,1607.0
59.620724262,1654.0
59.637435531,1612.0
59.654146800,1615.0
59.670858068,1652.0
59.687569337,1663.0
59.704280606,1699.0
59.720991875,1676.0
59.737703144,1603.0
59.754414413,1625.0
59.771125682,1649.0
59.787836951,1644.0
59.804548220,1654.0
59.821259489,1614.0
59.837970758,1726.0
59.854682027,1630.0
59.871393296,1667.0
59.888104565,1712.0
59.904815834,1638.0
59.921527103,1644.0
59.938238372,1600.0
59.954949641,1597.0
59.971660910,1675.0
59.988372179,1652.0
60.005083448,1675.0
60.021794717,1592.0
60.038505986,1677.0
60.055217255,1641.0
60.071928524,1720.0
60.088639793,1567.0
60.105351062,1634.0
60.122062331,1612.0
60.138773600,1664.0
60.155484869,1654.0
60.172196138,1643.0
60.188907407,1643.0
60.205618676,1532.0
60.222329945,1614.0
60.239041214,1627.0
60.255752483,1575.0
60.272463752,1626.0
60.289175021,1673.0
60.305886290,1653.0
60.322597559,1621.0
60.339308828,1695.0
60.356020097,1605.0
60.372731366,1633.0
60.389442635,1594.0
60.406153904,1580.0
60.422865173,1581.0
60.439576442,1696.0
60.456287711,1596.0
60.472998980,1659.0
60.489710248,1645.0
60.506421517,1630.0
60.523132786,1613.0
60.539844055,1624.0
60.556555324,1641.0
60.573266593,1651.0
60.589977862,1653.0
60.606689131,1593.0
60.623400400,1675.0
60.640111669,1577.0
60.656822938,1634.0
60.673534207,1695.0
60.690245476,1628.0
60.706956745,1593.0
60.723668014,1586.0
60.740379283,1641.0
60.757090552,1692.0
60.773801821,1690.0
60.790513090,1647.0
60.807224359,1597.0
60.823935628,1632.0
60.840646897,1632.0
60.857358166,1624.0
60.874069435,1641.0
60.890780704,1635.0
60.907491973,1679.0
60.924203242,1638.0
60.940914511,1623.0
60.957625780,1619.0
60.974337049,1628.0
60.991048318,1592.0
61.007759587,1625.0
61.024470856,1640.0
61.041182125,1600.0
61.057893394,1703.0
61.074604663,1664.0
61.091315932,1603.0
61.108027201,1589.0
61.124738470,1651.0
61.141449739,1623.0
61.158161008,1546.0
61.174872277,1648.0
61.191583546,1592.0
61.208294815,1605.0
61.225006084,1603.0
61.241717353,1664.0
61.258428622,1587.0
61.275139891,1643.0
61.291851160,1527.0
61.308562428,1654.0
61.325273697,1672.0
61.341984966,1575.0
61.358696235,1660.0
61.375407504,1571.0
61.392118773,1582.0
61.408830042,1651.0
61.425541311,1612.0
61.442252580,1543.0
61.458963849,1699.0
61.475675118,1611.0
61.492386387,1733.0
61.509097656,1638.0
61.525808925,1635.0
61.542520194,1639.0
61.559231463,1586.0
61.575942732,1602.0
61.592654001,1610.0
61.609365270,1567.0
61.626076539,1602.0
61.642787808,1667.0
61.659499077,1643.0
61.676210346,1648.0
61.692921615,1556.0
61.709632884,1568.0
61.726344153,1674.0
61.743055422,1598.0
61.759766691,1620.0
61.776477960,1631.0
61.793189229,1530.0
61.809900498,1636.0
61.826611767,1669.0
61.843323036,1640.0
61.860034305,1618.0
61.876745574,1537.0
61.893456843,1651.0
61.910168112,1613.0
61.926879381,1576.0
61.943590650,1602.0
61.960301919,1618.0
61.977013188,1601.0
61.993724457,1586.0
62.010435726,1623.0
62.027146995,1644.0
62.043858264,1634.0
62.060569533,1590.0
62.077280802,1631.0
62.093992071,1623.0
62.110703339,1638.0
62.127414608,1689.0
62.144125877,1638.0
62.160837146,1568.0
62.177548415,1666.0
62.194259684,1586.0
62.210970953,1597.0
62.227682222,1690.0
62.244393491,1702.0
62.261104760,1576.0
62.277816029,1686.0
62.294527298,1599.0
62.311238567,1652.0
62.327949836,1662.0
62.344661105,1555.0
62.361372374,1627.0
62.378083643,1647.0
62.394794912,1639.0
62.411506181,1616.0
62.428217450,1557.0
62.444928719,1613.0
62.461639988,1592.0
62.478351257,1632.0
62.495062526,1576.0
62.511773795,1610.0
62.528485064,1694.0
62.545196333,1550.0
62.561907602,1575.0
62.578618871,1645.0
62.595330140,1524.0
62.612041409,1675.0
62.628752678,1681.0
62.645463947,1583.0
62.662175216,1652.0
62.678886485,1601.0
62.695597754,1659.0
62.712309023,1635.0
62.729020292,1610.0
62.745731561,1631.0
62.762442830,1606.0
62.779154099,1624.0
62.795865368,1659.0
62.812576637,1610.0
62.829287906,1588.0
62.845999175,1634.0
62.862710444,1579.0
62.879421713,1585.0
62.896132982,1650.0
62.912844251,1630.0
62.929555519,1548.0
62.946266788,1684.0
62.962978057,1576.0
62.979689326,1605.0
62.996400595,1577.0
63.013111864,1609.0
63.029823133,1650.0
63.046534402,1606.0
63.063245671,1595.0
63.079956940,1593.0
63.096668209,1593.0
63.113379478,1658.0
63.130090747,1653.0
63.146802016,1565.0
63.163513285,1648.0
63.180224554,1631.0
63.196935823,1615.0
63.213647092,1628.0
63.230358361,1592.0
63.247069630,1650.0
63.263780899,1585.0
63.280492168,1612.0
63.297203437,1640.0
63.313914706,1592.0
63.330625975,1612.0
63.347337244,1551.0
63.364048513,1592.0
63.380759782,1691.0
63.397471051,1691.0
63.414182320,1526.0
63.430893589,1580.0
63.447604858,1499.0
63.464316127,1635.0
63.481027396,1639.0
63.497738665,1559.0
63.514449934,1584.0
63.531161203,1626.0
63.547872472,1582.0
63.564583741,1631.0
63.581295010,1611.0
63.598006279,1649.0
63.614717548,1580.0
63.631428817,1605.0
63.648140086,1665.0
63.664851355,1581.0
63.681562624,1634.0
63.698273893,1596.0
63.714985162,1603.0
63.731696430,1567.0
63.748407699,1663.0
63.765118968,1608.0
63.781830237,1651.0
63.798541506,1610.0
63.815252775,1615.0
63.831964044,1664.0
63.848675313,1576.0
63.865386582,1583.0
63.882097851,1592.0
63.898809120,1621.0
63.915520389,1610.0
63.932231658,1660.0
63.948942927,1709.0
63.965654196,1628.0
63.982365465,1584.0
63.999076734,1632.0
64.015788003,1611.0
64.032499272,1723.0
64.049210541,1653.0
64.065921810,1606.0
64.082633079,1550.0
64.099344348,1659.0
64.116055617,1596.0
64.132766886,1585.0
64.149478155,1544.0
64.166189424,1641.0
64.182900693,1575.0
64.199611962,1582.0
64.216323231,1558.0
64.233034500,1603.0
64.249745769,1587.0
64.266457038,1539.0
64.283168307,1586.0
64.299879576,1712.0
64.316590845,1614.0
64.333302114,1530.0
64.350013383,1696.0
64.366724652,1664.0
64.383435921,1572.0
64.400147190,1610.0
64.416858459,1618.0
64.433569728,1631.0
64.450280997,1626.0
64.466992266,1612.0
64.483703535,1634.0
64.500414804,1582.0
64.517126073,1573.0
64.533837342,1690.0
64.550548610,1627.0
64.567259879,1584.0
64.583971148,1523.0
64.600682417,1609.0
64.617393686,1601.0
64.634104955,1630.0
64.650816224,1618.0
64.667527493,1586.0
64.684238762,1593.0
64.700950031,1657.0
64.717661300,1632.0
64.734372569,1612.0
64.751083838,1552.0
64.767795107,1560.0
64.784506376,1589.0
64.801217645,1626.0
64.817928914,1610.0
64.834640183,1623.0
64.851351452,1623.0
64.868062721,1640.0
64.884773990,1686.0
64.901485259,1640.0
64.918196528,1678.0
64.934907797,1691.0
64.951619066,1631.0
64.968330335,1679.0
64.985041604,1541.0
65.001752873,1589.0
65.018464142,1671.0
65.035175411,1678.0
65.051886680,1652.0
65.068597949,1698.0
65.085309218,1627.0
65.102020487,1610.0
65.118731756,1631.0
65.135443025,1587.0
65.152154294,1630.0
65.168865563,1573.0
65.185576832,1687.0
65.202288101,1529.0
65.218999370,1667.0
65.235710639,1592.0
65.252421908,1664.0
65.269133177,1636.0
65.285844446,1532.0
65.302555715,1595.0
65.319266984,1688.0
65.335978253,1676.0
65.352689522,1573.0
65.369400790,1636.0
65.386112059,1626.0
65.402823328,1608.0
65.419534597,1624.0
65.436245866,1644.0
65.452957135,1589.0
65.469668404,1600.0
65.486379673,1599.0
65.503090942,1570.0
65.519802211,1571.0
65.536513480,1649.0
65.553224749,1621.0
65.569936018,1646.0
65.586647287,1570.0
65.603358556,1575.0
65.620069825,1624.0
65.636781094,1711.0
65.653492363,1633.0
65.670203632,1684.0
65.686914901,1622.0
65.703626170,1659.0
65.720337439,1600.0
65.737048708,1654.0
65.753759977,1547.0
65.770471246,1646.0
65.787182515,1641.0
65.803893784,1679.0
65.820605053,1688.0
65.837316322,1628.0
65.854027591,1651.0
65.870738860,1675.0
65.887450129,1681.0
65.904161398,1702.0
65.920872667,1638.0
65.937583936,1670.0
65.954295205,1594.0
65.971006474,1661.0
65.987717743,1652.0
66.004429012,1569.0
66.021140281,1622.0
66.037851550,1643.0
66.054562819,1634.0
66.071274088,1607.0
66.087985357,1571.0
66.104696626,1640.0
66.121407895,1678.0
66.138119164,1583.0
66.154830433,1675.0
66.171541701,1656.0
66.188252970,1606.0
66.204964239,1547.0
66.221675508,1570.0
66.238386777,1639.0
66.255098046,1611.0
66.271809315,1630.0
66.288520584,1575.0
66.305231853,1671.0
66.321943122,1677.0
66.338654391,1593.0
66.355365660,1687.0
66.372076929,1660.0
66.388788198,1643.0
66.405499467,1618.0
66.422210736,1557.0
66.438922005,1644.0
66.455633274,1562.0
66.472344543,1653.0
66.489055812,1572.0
66.505767081,1505.0
66.522478350,1543.0
66.539189619,1661.0
66.555900888,1606.0
66.572612157,1636.0
66.589323426,1637.0
66.606034695,1624.0
66.622745964,1571.0
66.639457233,1582.0
66.656168502,1595.0
66.672879771,1624.0
66.689591040,1582.0
66.706302309,1622.0
66.723013578,1625.0
66.739724847,1597.0
66.756436116,1653.0
66.773147385,1602.0
66.789858654,1647.0
66.806569923,1551.0
66.823281192,1611.0
66.839992461,1587.0
66.856703730,1609.0
66.873414999,1590.0
66.890126268,1518.0
66.906837537,1682.0
66.923548806,1557.0
66.940260075,1589.0
66.956971344,1585.0
66.973682613,1638.0
66.990393881,1633.0
67.007105150,1618.0
67.023816419,1630.0
67.040527688,1722.0
67.057238957,1650.0
67.073950226,1620.0
67.090661495,1622.0
67.107372764,1622.0
67.124084033,1602.0
67.140795302,1496.0
67.157506571,1562.0
67.174217840,1639.0
67.190929109,1653.0
67.207640378,1577.0
67.224351647,1619.0
67.241062916,1654.0
67.257774185,1538.0
67.274485454,1625.0
67.291196723,1667.0
67.307907992,1565.0
67.324619261,1602.0
67.341330530,1579.0
67.358041799,1662.0
67.374753068,1624.0
67.391464337,1676.0
67.408175606,1592.0
67.424886875,1579.0
67.441598144,1650.0
67.458309413,1605.0
67.475020682,1505.0
67.491731951,1614.0
67.508443220,1649.0
67.525154489,1574.0
67.541865758,1700.0
67.558577027,1633.0
67.575288296,1636.0
67.591999565,1607.0
67.608710834,1657.0
67.625422103,1599.0
67.642133372,1589.0
67.658844641,1647.0
67.675555910,1612.0
67.692267179,1610.0
67.708978448,1661.0
67.725689717,1641.0
67.742400986,1585.0
67.759112255,1512.0
67.775823524,1688.0
67.792534793,1613.0
67.809246061,1584.0
67.825957330,1596.0
67.842668599,1656.0
67.859379868,1639.0
67.876091137,1589.0
67.892802406,1614.0
67.909513675,1606.0
67.926224944,1631.0
67.942936213,1661.0
67.959647482,1723.0
67.976358751,1622.0
67.993070020,1777.0
68.009781289,1748.0
68.026492558,1714.0
68.043203827,1750.0
68.059915096,1729.0
68.076626365,1640.0
68.093337634,1679.0
68.110048903,1643.0
68.126760172,1656.0
68.143471441,1610.0
68.160182710,1657.0
68.176893979,1610.0
68.193605248,1603.0
68.210316517,1690.0
68.227027786,1726.0
68.243739055,1712.0
68.260450324,1692.0
68.277161593,1554.0
68.293872862,1623.0
68.310584131,1627.0
68.327295400,1658.0
68.344006669,1679.0
68.360717938,1656.0
68.377429207,1558.0
68.394140476,1596.0
68.410851745,1583.0
68.427563014,1667.0
68.444274283,1587.0
68.460985552,1561.0
68.477696821,1592.0
68.494408090,1671.0
68.511119359,1597.0
68.527830628,1625.0
68.544541897,1637.0
68.561253166,1599.0
68.577964435,1602.0
68.594675704,1508.0
68.611386972,1598.0
68.628098241,1624.0
68.644809510,1609.0
68.661520779,1580.0
68.678232048,1598.0
68.694943317,1594.0
68.711654586,1590.0
68.728365855,1661.0
68.745077124,1631.0
68.761788393,1673.0
68.778499662,1573.0
68.795210931,1679.0
68.811922200,1640.0
68.828633469,1735.0
68.845344738,1640.0
68.862056007,1643.0
68.878767276,1559.0
68.895478545,1563.0
68.912189814,1624.0
68.928901083,1520.0
68.945612352,1580.0
68.962323621,1620.0
68.979034890,1607.0
68.995746159,1608.0
69.012457428,1632.0
69.029168697,1592.0
69.045879966,1560.0
69.062591235,1599.0
69.079302504,1529.0
69.096013773,1664.0
69.112725042,1618.0
69.129436311,1568.0
69.146147580,1612.0
69.162858849,1666.0
69.179570118,1625.0
69.196281387,1601.0
69.212992656,1576.0
69.229703925,1590.0
69.246415194,1640.0
69.263126463,1590.0
69.279837732,1612.0
69.296549001,1582.0
69.313260270,1602.0
69.329971539,1580.0
69.346682808,1603.0
69.363394077,1627.0
69.380105346,1639.0
69.396816615,1614.0
69.413527884,1581.0
69.430239152,1666.0
69.446950421,1588.0
69.463661690,1597.0
69.480372959,1652.0
69.497084228,1658.0
69.513795497,1670.0
69.530506766,1637.0
69.547218035,1510.0
69.563929304,1664.0
69.580640573,1613.0
69.597351842,1571.0
69.614063111,1606.0
69.630774380,1612.0
69.647485649,1571.0
69.664196918,1630.0
69.680908187,1613.0
69.697619456,1615.0
69.714330725,1639.0
69.731041994,1559.0
69.747753263,1609.0
69.764464532,1666.0
69.781175801,1702.0
69.797887070,1616.0
69.814598339,1565.0
69.831309608,1579.0
69.848020877,1626.0
69.864732146,1692.0
69.881443415,1561.0
69.898154684,1595.0
69.914865953,1713.0
69.931577222,1649.0
69.948288491,1613.0
69.964999760,1619.0
69.981711029,1606.0
69.998422298,1544.0
70.015133567,1621.0
70.031844836,1673.0
70.048556105,1639.0
70.065267374,1659.0
70.081978643,1573.0
70.098689912,1656.0
70.115401181,1606.0
70.132112450,1605.0
70.148823719,1628.0
70.165534988,1606.0
70.182246257,1569.0
70.198957526,1644.0
70.215668795,1644.0
70.232380063,1639.0
70.249091332,1539.0
70.265802601,1636.0
70.282513870,1631.0
70.299225139,1582.0
70.315936408,1552.0
70.332647677,1593.0
70.349358946,1661.0
70.366070215,1592.0
70.382781484,1647.0
70.399492753,1536.0
70.416204022,1634.0
70.432915291,1601.0
70.449626560,1564.0
70.466337829,1667.0
70.483049098,1569.0
70.499760367,1663.0
70.516471636,1607.0
70.533182905,1570.0
70.549894174,1624.0
70.566605443,1624.0
70.583316712,1612.0
70.600027981,1660.0
70.616739250,1579.0
70.633450519,1640.0
70.650161788,1685.0
70.666873057,1568.0
70.683584326,1585.0
70.700295595,1619.0
70.717006864,1662.0
70.733718133,1603.0
70.750429402,1600.0
70.767140671,1567.0
70.783851940,1587.0
70.800563209,1639.0
70.817274478,1571.0
70.833985747,1588.0
70.850697016,1601.0
70.867408285,1661.0
70.884119554,1596.0
70.900830823,1626.0
70.917542092,1577.0
70.934253361,1616.0
70.950964630,1650.0
70.967675899,1606.0
70.984387168,1607.0
71.001098437,1596.0
71.017809706,1692.0
71.034520975,1630.0
71.051232243,1702.0
71.067943512,1656.0
71.084654781,1691.0
71.101366050,1656.0
71.118077319,1626.0
71.134788588,1689.0
71.151499857,1576.0
71.168211126,1671.0
71.184922395,1605.0
71.201633664,1612.0
71.218344933,1709.0
71.235056202,1619.0
71.251767471,1679.0
71.268478740,1659.0
71.285190009,1574.0
71.301901278,1694.0
71.318612547,1646.0
71.335323816,1653.0
71.352035085,1616.0
71.368746354,1555.0
71.385457623,1639.0
71.402168892,1641.0
71.418880161,1692.0
71.435591430,1727.0
71.452302699,1599.0
71.469013968,1647.0
71.485725237,1605.0
71.502436506,1621.0
71.519147775,1710.0
71.535859044,1618.0
71.552570313,1665.0
71.569281582,1635.0
71.585992851,1671.0
71.602704120,1659.0
71.619415389,1669.0
71.636126658,1683.0
71.652837927,1695.0
71.669549196,1597.0
71.686260465,1646.0
71.702971734,1639.0
71.719683003,1626.0
71.736394272,1685.0
71.753105541,1620.0
71.769816810,1637.0
71.786528079,1683.0
71.803239348,1657.0
71.819950617,1598.0
71.836661886,1590.0
71.853373155,1626.0
71.870084423,1597.0
71.886795692,1695.0
71.903506961,1564.0
71.920218230,1593.0
71.936929499,1712.0
71.953640768,1694.0
71.970352037,1663.0
71.987063306,1663.0
72.003774575,1700.0
72.020485844,1661.0
72.037197113,1691.0
72.053908382,1688.0
72.070619651,1638.0
72.087330920,1589.0
72.104042189,1675.0
72.120753458,1670.0
72.137464727,1625.0
72.154175996,1663.0
72.170887265,1698.0
72.187598534,1701.0
72.204309803,1734.0
72.221021072,1718.0
72.237732341,1697.0
72.254443610,1659.0
72.271154879,1563.0
72.287866148,1557.0
72.304577417,1653.0
72.321288686,1694.0
72.337999955,1550.0
72.354711224,1692.0
72.371422493,1627.0
72.388133762,1632.0
72.404845031,1745.0
72.421556300,1574.0
72.438267569,1696.0
72.454978838,1579.0
72.471690107,1626.0
72.488401376,1664.0
72.505112645,1658.0
72.521823914,1603.0
72.538535183,1567.0
72.555246452,1644.0
72.571957721,1659.0
72.588668990,1687.0
72.605380259,1589.0
72.622091528,1727.0
72.638802797,1637.0
72.655514066,1685.0
72.672225334,1602.0
72.688936603,1658.0
72.705647872,1600.0
72.722359141,1713.0
72.739070410,1588.0
72.755781679,1691.0
72.772492948,1682.0
72.789204217,1708.0
72.805915486,1738.0
72.822626755,1659.0
72.839338024,1648.0
72.856049293,1764.0
72.872760562,1635.0
72.889471831,1611.0
72.906183100,1656.0
72.922894369,1611.0
72.939605638,1635.0
72.956316907,1631.0
72.973028176,1587.0
72.989739445,1589.0
73.006450714,1664.0
73.023161983,1596.0
73.039873252,1612.0
73.056584521,1749.0
73.073295790,1699.0
73.090007059,1704.0
73.106718328,1705.0
73.123429597,1688.0
73.140140866,1683.0
73.156852135,1678.0
73.173563404,1724.0
73.190274673,1677.0
73.206985942,1657.0
73.223697211,1721.0
73.240408480,1677.0
73.257119749,1632.0
73.273831018,1716.0
73.290542287,1698.0
73.307253556,1654.0
73.323964825,1622.0
73.340676094,1676.0
73.357387363,1690.0
73.374098632,1715.0
73.390809901,1679.0
73.407521170,1686.0
73.424232439,1738.0
73.440943708,1734.0
73.457654977,1733.0
73.474366246,1737.0
73.491077514,1816.0
73.507788783,1829.0
73.524500052,1816.0
73.541211321,1872.0
73.557922590,1865.0
73.574633859,1855.0
73.591345128,1875.0
73.608056397,1885.0
73.624767666,2003.0
73.641478935,2019.0
73.658190204,1998.0
73.674901473,2079.0
73.691612742,2079.0
73.708324011,2169.0
73.725035280,2192.0
73.741746549,2224.0
73.758457818,2274.0
73.775169087,2306.0
73.791880356,2412.0
73.808591625,2640.0
73.825302894,2651.0
73.842014163,2854.0
73.858725432,3211.0
73.875436701,3644.0
73.892147970,4207.0
73.908859239,5529.0
73.925570508,7470.0
73.942281777,10923.0
73.958993046,15854.0
73.975704315,21970.0
73.992415584,25349.0
74.009126853,22642.0
74.025838122,16432.0
74.042549391,11080.0
74.059260660,7628.0
74.075971929,5923.0
74.092683198,4928.0
74.109394467,4546.0
74.126105736,4835.0
74.142817005,5630.0
74.159528274,7048.0
74.176239543,9714.0
74.192950812,12344.0
74.209662081,13343.0
74.226373350,11812.0
74.243084619,8921.0
74.259795888,6260.0
74.276507157,4665.0
74.293218426,3728.0
74.309929694,3134.0
74.326640963,2672.0
74.343352232,2463.0
74.360063501,2428.0
74.376774770,2243.0
74.393486039,2237.0
74.410197308,2076.0
74.426908577,2017.0
74.443619846,2045.0
74.460331115,1930.0
74.477042384,1985.0
74.493753653,1870.0
74.510464922,1823.0
74.527176191,1825.0
74.543887460,1868.0
74.560598729,1780.0
74.577309998,1817.0
74.594021267,1762.0
74.610732536,1860.0
74.627443805,1728.0
74.644155074,1786.0
74.660866343,1875.0
74.677577612,1670.0
74.694288881,1685.0
74.711000150,1720.0
74.727711419,1778.0
74.744422688,1752.0
74.761133957,1747.0
74.777845226,1674.0
74.794556495,1724.0
74.811267764,1670.0
74.827979033,1733.0
74.844690302,1683.0
74.861401571,1708.0
74.878112840,1716.0
74.894824109,1690.0
74.911535378,1663.0
74.928246647,1674.0
74.944957916,1686.0
74.961669185,1682.0
74.978380454,1774.0
74.995091723,1619.0
75.011802992,1658.0
75.028514261,1691.0
75.045225530,1742.0
75.061936799,1749.0
75.078648068,1746.0
75.095359337,1662.0
75.112070605,1694.0
75.128781874,1696.0
75.145493143,1678.0
75.162204412,1649.0
75.178915681,1676.0
75.195626950,1634.0
75.212338219,1587.0
75.229049488,1657.0
75.245760757,1669.0
75.262472026,1682.0
75.279183295,1657.0
75.295894564,1646.0
75.312605833,1698.0
75.329317102,1633.0
75.346028371,1660.0
75.362739640,1689.0
75.379450909,1729.0
75.396162178,1691.0
75.412873447,1709.0
75.429584716,1634.0
75.446295985,1612.0
75.463007254,1727.0
75.479718523,1634.0
75.496429792,1627.0
75.513141061,1737.0
75.529852330,1652.0
75.546563599,1653.0
75.563274868,1689.0
75.579986137,1660.0
75.596697406,1622.0
75.613408675,1663.0
75.630119944,1627.0
75.646831213,1669.0
75.663542482,1643.0
75.680253751,1618.0
75.696965020,1645.0
75.713676289,1627.0
75.730387558,1679.0
75.747098827,1677.0
75.763810096,1631.0
75.780521365,1675.0
75.797232634,1701.0
75.813943903,1575.0
75.830655172,1623.0
75.847366441,1643.0
75.864077710,1620.0
75.880788979,1646.0
75.897500248,1759.0
75.914211517,1640.0
75.930922785,1644.0
75.947634054,1678.0
75.964345323,1644.0
75.981056592,1699.0
75.997767861,1638.0
76.014479130,1670.0
76.031190399,1646.0
76.047901668,1653.0
76.064612937,1623.0
76.081324206,1633.0
76.098035475,1643.0
76.114746744,1632.0
76.131458013,1697.0
76.148169282,1633.0
76.164880551,1703.0
76.181591820,1613.0
76.198303089,1653.0
76.215014358,1713.0
76.231725627,1685.0
76.248436896,1585.0
76.265148165,1572.0
76.281859434,1562.0
76.298570703,1643.0
76.315281972,1690.0
76.331993241,1686.0
76.348704510,1691.0
76.365415779,1652.0
76.382127048,1586.0
76.398838317,1646.0
76.415549586,1641.0
76.432260855,1627.0
76.448972124,1613.0
76.465683393,1701.0
76.482394662,1664.0
76.499105931,1630.0
76.515817200,1677.0
76.532528469,1674.0
76.549239738,1630.0
76.565951007,1593.0
76.582662276,1579.0
76.599373545,1614.0
76.616084814,1641.0
76.632796083,1597.0
76.649507352,1609.0
76.666218621,1600.0
76.682929890,1605.0
76.699641159,1707.0
76.716352428,1636.0
76.733063696,1705.0
76.749774965,1671.0
76.766486234,1691.0
76.783197503,1653.0
76.799908772,1634.0
76.816620041,1672.0
76.833331310,1720.0
76.850042579,1623.0
76.866753848,1615.0
76.883465117,1634.0
76.900176386,1677.0
76.916887655,1560.0
76.933598924,1614.0
76.950310193,1619.0
76.967021462,1647.0
76.983732731,1674.0
77.000444000,1639.0
77.017155269,1643.0
77.033866538,1624.0
77.050577807,1607.0
77.067289076,1597.0
77.084000345,1534.0
77.100711614,1605.0
77.117422883,1703.0
77.134134152,1613.0
77.150845421,1609.0
77.167556690,1601.0
77.184267959,1533.0
77.200979228,1707.0
77.217690497,1675.0
77.234401766,1686.0
77.251113035,1615.0
77.267824304,1561.0
77.284535573,1641.0
77.301246842,1644.0
77.317958111,1560.0
77.334669380,1571.0
77.351380649,1657.0
77.368091918,1634.0
77.384803187,1656.0
77.401514456,1624.0
77.418225725,1592.0
77.434936994,1663.0
77.451648263,1634.0
77.468359532,1714.0
77.485070801,1644.0
77.501782070,1572.0
77.518493339,1601.0
77.535204608,1745.0
77.551915876,1637.0
77.568627145,1658.0
77.585338414,1652.0
77.602049683,1627.0
77.618760952,1648.0
77.635472221,1626.0
77.652183490,1575.0
77.668894759,1666.0
77.685606028,1624.0
77.702317297,1649.0
77.719028566,1637.0
77.735739835,1652.0
77.752451104,1688.0
77.769162373,1632.0
77.785873642,1619.0
77.802584911,1641.0
77.819296180,1676.0
77.836007449,1561.0
77.852718718,1692.0
77.869429987,1562.0
77.886141256,1664.0
77.902852525,1615.0
77.919563794,1596.0
77.936275063,1609.0
77.952986332,1641.0
77.969697601,1685.0
77.986408870,1623.0
78.003120139,1602.0
78.019831408,1639.0
78.036542677,1643.0
78.053253946,1676.0
78.069965215,1641.0
78.086676484,1625.0
78.103387753,1587.0
78.120099022,1602.0
78.136810291,1609.0
78.153521560,1650.0
78.170232829,1611.0
78.186944098,1623.0
78.203655367,1628.0
78.220366636,1600.0
78.237077905,1653.0
78.253789174,1605.0
78.270500443,1667.0
78.287211712,1623.0
78.303922981,1660.0
78.320634250,1613.0
78.337345519,1592.0
78.354056788,1599.0
78.370768056,1677.0
78.387479325,1610.0
78.404190594,1590.0
78.420901863,1685.0
78.437613132,1705.0
78.454324401,1647.0
78.471035670,1639.0
78.487746939,1618.0
78.504458208,1611.0
78.521169477,1621.0
78.537880746,1678.0
78.554592015,1599.0
78.571303284,1567.0
78.588014553,1683.0
78.604725822,1607.0
78.621437091,1631.0
78.638148360,1625.0
78.654859629,1632.0
78.671570898,1640.0
78.688282167,1662.0
78.704993436,1620.0
78.721704705,1698.0
78.738415974,1632.0
78.755127243,1635.0
78.771838512,1627.0
78.788549781,1633.0
78.805261050,1657.0
78.821972319,1628.0
78.838683588,1618.0
78.855394857,1658.0
78.872106126,1648.0
78.888817395,1584.0
78.905528664,1621.0
78.922239933,1582.0
78.938951202,1673.0
78.955662471,1638.0
78.972373740,1562.0
78.989085009,1656.0
79.005796278,1624.0
79.022507547,1565.0
79.039218816,1608.0
79.055930085,1661.0
79.072641354,1640.0
79.089352623,1638.0
79.106063892,1670.0
79.122775161,1632.0
79.139486430,1638.0
79.156197699,1622.0
79.172908967,1632.0
79.189620236,1609.0
79.206331505,1577.0
79.223042774,1652.0
79.239754043,1614.0
79.256465312,1720.0
79.273176581,1641.0
79.289887850,1616.0
79.306599119,1570.0
79.323310388,1568.0
79.340021657,1576.0
79.356732926,1676.0
79.373444195,1611.0
79.390155464,1607.0
79.406866733,1624.0
79.423578002,1637.0
79.440289271,1635.0
79.457000540,1532.0
79.473711809,1596.0
79.490423078,1624.0
79.507134347,1663.0
79.523845616,1543.0
79.540556885,1574.0
79.557268154,1572.0
79.573979423,1618.0
79.590690692,1561.0
79.607401961,1603.0
79.624113230,1592.0
79.640824499,1626.0
79.657535768,1609.0
79.674247037,1575.0
79.690958306,1605.0
79.707669575,1565.0
79.724380844,1675.0
79.741092113,1587.0
79.757803382,1546.0
79.774514651,1670.0
79.791225920,1666.0
79.807937189,1628.0
79.824648458,1596.0
79.841359727,1582.0
79.858070996,1571.0
79.874782265,1603.0
79.891493534,1587.0
79.908204803,1557.0
79.924916072,1593.0
79.941627341,1580.0
79.958338610,1686.0
79.975049879,1653.0
79.991761147,1633.0
80.008472416,1582.0
80.025183685,1581.0
80.041894954,1622.0
80.058606223,1600.0
80.075317492,1557.0
80.092028761,1572.0
80.108740030,1628.0
80.125451299,1643.0
80.142162568,1662.0
80.158873837,1599.0
80.175585106,1587.0
80.192296375,1570.0
80.209007644,1678.0
80.225718913,1598.0
80.242430182,1573.0
80.259141451,1643.0
80.275852720,1610.0
80.292563989,1675.0
80.309275258,1618.0
80.325986527,1692.0
80.342697796,1665.0
80.359409065,1613.0
80.376120334,1597.0
80.392831603,1622.0
80.409542872,1600.0
80.426254141,1603.0
80.442965410,1616.0
80.459676679,1637.0
80.476387948,1641.0
80.493099217,1542.0
80.509810486,1636.0
80.526521755,1654.0
80.543233024,1567.0
80.559944293,1595.0
80.576655562,1620.0
80.593366831,1561.0
80.610078100,1576.0
80.626789369,1638.0
80.643500638,1572.0
80.660211907,1635.0
80.676923176,1611.0
80.693634445,1635.0
80.710345714,1683.0
80.727056983,1646.0
80.743768252,1663.0
80.760479521,1585.0
80.777190790,1611.0
80.793902059,1664.0
80.810613327,1535.0
80.827324596,1600.0
80.844035865,1607.0
80.860747134,1659.0
80.877458403,1658.0
80.894169672,1654.0
80.910880941,1585.0
80.927592210,1592.0
80.944303479,1643.0
80.961014748,1657.0
80.977726017,1607.0
80.994437286,1639.0
81.011148555,1626.0
81.027859824,1684.0
81.044571093,1650.0
81.061282362,1650.0
81.077993631,1626.0
81.094704900,1660.0
81.111416169,1645.0
81.128127438,1615.0
81.144838707,1624.0
81.161549976,1647.0
81.178261245,1597.0
81.194972514,1667.0
81.211683783,1606.0
81.228395052,1607.0
81.245106321,1675.0
81.261817590,1682.0
81.278528859,1666.0
81.295240128,1610.0
81.311951397,1664.0
81.328662666,1669.0
81.345373935,1616.0
81.362085204,1527.0
81.378796473,1681.0
81.395507742,1620.0
81.412219011,1616.0
81.428930280,1679.0
81.445641549,1716.0
81.462352818,1558.0
81.479064087,1648.0
81.495775356,1610.0
81.512486625,1638.0
81.529197894,1602.0
81.545909163,1640.0
81.562620432,1593.0
81.579331701,1661.0
81.596042970,1573.0
81.612754238,1648.0
81.629465507,1552.0
81.646176776,1619.0
81.662888045,1565.0
81.679599314,1661.0
81.696310583,1631.0
81.713021852,1602.0
81.729733121,1609.0
81.746444390,1592.0
81.763155659,1649.0
81.779866928,1593.0
81.796578197,1608.0
81.813289466,1662.0
81.830000735,1647.0
81.846712004,1558.0
81.863423273,1595.0
81.880134542,1652.0
81.896845811,1587.0
81.913557080,1638.0
81.930268349,1588.0
81.946979618,1593.0
81.963690887,1670.0
81.980402156,1700.0
81.997113425,1645.0
82.013824694,1704.0
82.030535963,1788.0
82.047247232,1624.0
82.063958501,1638.0
82.080669770,1681.0
82.097381039,1652.0
82.114092308,1625.0
82.130803577,1581.0
82.147514846,1636.0
82.164226115,1639.0
82.180937384,1667.0
82.197648653,1607.0
82.214359922,1658.0
82.231071191,1622.0
82.247782460,1672.0
82.264493729,1710.0
82.281204998,1664.0
82.297916267,1650.0
82.314627536,1663.0
82.331338805,1660.0
82.348050074,1685.0
82.364761343,1665.0
82.381472612,1618.0
82.398183881,1610.0
82.414895150,1602.0
82.431606418,1549.0
82.448317687,1725.0
82.465028956,1652.0
82.481740225,1664.0
82.498451494,1569.0
82.515162763,1538.0
82.531874032,1638.0
82.548585301,1627.0
82.565296570,1556.0
82.582007839,1590.0
82.598719108,1588.0
82.615430377,1561.0
82.632141646,1615.0
82.648852915,1467.0
82.665564184,1651.0
82.682275453,1636.0
82.698986722,1533.0
82.715697991,1621.0
82.732409260,1616.0
82.749120529,1585.0
82.765831798,1580.0
82.782543067,1546.0
82.799254336,1596.0
82.815965605,1594.0
82.832676874,1653.0
82.849388143,1594.0
82.866099412,1517.0
82.882810681,1632.0
82.899521950,1615.0
82.916233219,1640.0
82.932944488,1589.0
82.949655757,1640.0
82.966367026,1656.0
82.983078295,1576.0
82.999789564,1608.0
83.016500833,1602.0
83.033212102,1653.0
83.049923371,1572.0
83.066634640,1627.0
83.083345909,1561.0
83.100057178,1603.0
83.116768447,1606.0
83.133479716,1659.0
83.150190985,1569.0
83.166902254,1627.0
83.183613523,1641.0
83.200324792,1607.0
83.217036061,1613.0
83.233747329,1599.0
83.250458598,1644.0
83.267169867,1663.0
83.283881136,1556.0
83.300592405,1554.0
83.317303674,1697.0
83.334014943,1599.0
83.350726212,1622.0
83.367437481,1582.0
83.384148750,1551.0
83.400860019,1580.0
83.417571288,1607.0
83.434282557,1592.0
83.450993826,1636.0
83.467705095,1580.0
83.484416364,1621.0
83.501127633,1625.0
83.517838902,1630.0
83.534550171,1669.0
83.551261440,1661.0
83.567972709,1627.0
83.584683978,1652.0
83.601395247,1606.0
83.618106516,1625.0
83.634817785,1516.0
83.651529054,1571.0
83.668240323,1590.0
83.684951592,1587.0
83.701662861,1605.0
83.718374130,1651.0
83.735085399,1626.0
83.751796668,1559.0
83.768507937,1696.0
83.785219206,1576.0
83.801930475,1630.0
83.818641744,1613.0
83.835353013,1603.0
83.852064282,1548.0
83.868775551,1586.0
83.885486820,1626.0
83.902198089,1648.0
83.918909358,1681.0
83.935620627,1544.0
83.952331896,1664.0
83.969043165,1550.0
83.985754434,1652.0
84.002465703,1644.0
84.019176972,1595.0
84.035888241,1601.0
84.052599509,1637.0
84.069310778,1702.0
84.086022047,1577.0
84.102733316,1598.0
84.119444585,1626.0
84.136155854,1522.0
84.152867123,1557.0
84.169578392,1561.0
84.186289661,1651.0
84.203000930,1575.0
84.219712199,1570.0
84.236423468,1598.0
84.253134737,1619.0
84.269846006,1568.0
84.286557275,1567.0
84.303268544,1611.0
84.319979813,1539.0
84.336691082,1592.0
84.353402351,1702.0
84.370113620,1622.0
84.386824889,1658.0
84.403536158,1594.0
84.420247427,1570.0
84.436958696,1557.0
84.453669965,1624.0
84.470381234,1567.0
84.487092503,1581.0
84.503803772,1603.0
84.520515041,1538.0
84.537226310,1614.0
84.553937579,1523.0
84.570648848,1585.0
84.587360117,1560.0
84.604071386,1579.0
84.620782655,1605.0
84.637493924,1682.0
84.654205193,1627.0
84.670916462,1585.0
84.687627731,1606.0
84.704339000,1603.0
84.721050269,1648.0
84.737761538,1656.0
84.754472807,1597.0
84.771184076,1490.0
84.787895345,1690.0
84.804606614,1661.0
84.821317883,1599.0
84.838029152,1611.0
84.854740421,1574.0
84.871451689,1613.0
84.888162958,1610.0
84.904874227,1581.0
84.921585496,1679.0
84.938296765,1605.0
84.955008034,1570.0
84.971719303,1575.0
84.988430572,1503.0
85.005141841,1610.0
85.021853110,1630.0
85.038564379,1627.0
85.055275648,1630.0
85.071986917,1583.0
85.088698186,1610.0
85.105409455,1670.0
85.122120724,1689.0
85.138831993,1575.0
85.155543262,1621.0
85.172254531,1664.0
85.188965800,1571.0
85.205677069,1676.0
85.222388338,1628.0
85.239099607,1673.0
85.255810876,1632.0
85.272522145,1623.0
85.289233414,1637.0
85.305944683,1638.0
85.322655952,1583.0
85.339367221,1499.0
85.356078490,1638.0
85.372789759,1670.0
85.389501028,1606.0
85.406212297,1669.0
85.422923566,1574.0
85.439634835,1569.0
85.456346104,1704.0
85.473057373,1587.0
85.489768642,1623.0
85.506479911,1607.0
85.523191180,1593.0
85.539902449,1602.0
85.556613718,1621.0
85.573324987,1634.0
85.590036256,1665.0
85.606747525,1580.0
85.623458794,1622.0
85.640170063,1567.0
85.656881332,1622.0
85.673592600,1616.0
85.690303869,1589.0
85.707015138,1652.0
85.723726407,1558.0
85.740437676,1684.0
85.757148945,1542.0
85.773860214,1585.0
85.790571483,1636.0
85.807282752,1537.0
85.823994021,1648.0
85.840705290,1590.0
85.857416559,1545.0
85.874127828,1630.0
85.890839097,1649.0
85.907550366,1639.0
85.924261635,1682.0
85.940972904,1597.0
85.957684173,1596.0
85.974395442,1684.0
85.991106711,1620.0
86.007817980,1657.0
86.024529249,1683.0
86.041240518,1603.0
86.057951787,1586.0
86.074663056,1660.0
86.091374325,1635.0
86.108085594,1584.0
86.124796863,1676.0
86.141508132,1662.0
86.158219401,1576.0
86.174930670,1607.0
86.191641939,1596.0
86.208353208,1683.0
86.225064477,1557.0
86.241775746,1630.0
86.258487015,1621.0
86.275198284,1636.0
86.291909553,1607.0
86.308620822,1669.0
86.325332091,1636.0
86.342043360,1558.0
86.358754629,1635.0
86.375465898,1596.0
86.392177167,1601.0
86.408888436,1567.0
86.425599705,1630.0
86.442310974,1694.0
86.459022243,1672.0
86.475733512,1665.0
86.492444780,1644.0
86.509156049,1689.0
86.525867318,1631.0
86.542578587,1596.0
86.559289856,1644.0
86.576001125,1615.0
86.592712394,1573.0
86.609423663,1605.0
86.626134932,1676.0
86.642846201,1613.0
86.659557470,1619.0
86.676268739,1645.0
86.692980008,1711.0
86.709691277,1667.0
86.726402546,1597.0
86.743113815,1646.0
86.759825084,1571.0
86.776536353,1695.0
86.793247622,1678.0
86.809958891,1587.0
86.826670160,1555.0
86.843381429,1682.0
86.860092698,1582.0
86.876803967,1533.0
86.893515236,1658.0
86.910226505,1672.0
86.926937774,1599.0
86.943649043,1670.0
86.960360312,1590.0
86.977071581,1587.0
86.993782850,1577.0
87.010494119,1648.0
87.027205388,1587.0
87.043916657,1660.0
87.060627926,1675.0
87.077339195,1581.0
87.094050464,1672.0
87.110761733,1623.0
87.127473002,1686.0
87.144184271,1607.0
87.160895540,1584.0
87.177606809,1607.0
87.194318078,1684.0
87.211029347,1635.0
87.227740616,1654.0
87.244451885,1627.0
87.261163154,1582.0
87.277874423,1709.0
87.294585692,1582.0
87.311296960,1581.0
87.328008229,1597.0
87.344719498,1559.0
87.361430767,1683.0
87.378142036,1643.0
87.394853305,1594.0
87.411564574,1541.0
87.428275843,1644.0
87.444987112,1557.0
87.461698381,1613.0
87.478409650,1621.0
87.495120919,1596.0
87.511832188,1616.0
87.528543457,1683.0
87.545254726,1682.0
87.561965995,1645.0
87.578677264,1506.0
87.595388533,1602.0
87.612099802,1603.0
87.628811071,1600.0
87.645522340,1641.0
87.662233609,1670.0
87.678944878,1676.0
87.695656147,1607.0
87.712367416,1626.0
87.729078685,1646.0
87.745789954,1637.0
87.762501223,1606.0
87.779212492,1597.0
87.795923761,1603.0
87.812635030,1601.0
87.829346299,1651.0
87.846057568,1695.0
87.862768837,1610.0
87.879480106,1661.0
87.896191375,1612.0
87.912902644,1635.0
87.929613913,1585.0
87.946325182,1603.0
87.963036451,1545.0
87.979747720,1646.0
87.996458989,1684.0
88.013170258,1623.0
88.029881527,1603.0
88.046592796,1583.0
88.063304065,1665.0
88.080015334,1641.0
88.096726603,1683.0
88.113437871,1647.0
88.130149140,1574.0
88.146860409,1572.0
88.163571678,1639.0
88.180282947,1684.0
88.196994216,1603.0
88.213705485,1586.0
88.230416754,1625.0
88.247128023,1640.0
88.263839292,1569.0
88.280550561,1579.0
88.297261830,1615.0
88.313973099,1607.0
88.330684368,1632.0
88.347395637,1603.0
88.364106906,1678.0
88.380818175,1682.0
88.397529444,1543.0
88.414240713,1682.0
88.430951982,1599.0
88.447663251,1643.0
88.464374520,1674.0
88.481085789,1586.0
88.497797058,1690.0
88.514508327,1557.0
88.531219596,1664.0
88.547930865,1579.0
88.564642134,1700.0
88.581353403,1570.0
88.598064672,1603.0
88.614775941,1614.0
88.631487210,1649.0
88.648198479,1632.0
88.664909748,1664.0
88.681621017,1710.0
88.698332286,1640.0
88.715043555,1722.0
88.731754824,1583.0
88.748466093,1646.0
88.765177362,1700.0
88.781888631,1650.0
88.798599900,1565.0
88.815311169,1607.0
88.832022438,1612.0
88.848733707,1565.0
88.865444976,1623.0
88.882156245,1635.0
88.898867514,1607.0
88.915578783,1632.0
88.932290051,1597.0
88.949001320,1644.0
88.965712589,1653.0
88.982423858,1684.0
88.999135127,1625.0
89.015846396,1709.0
89.032557665,1646.0
89.049268934,1666.0
89.065980203,1621.0
89.082691472,1745.0
89.099402741,1675.0
89.116114010,1676.0
89.132825279,1664.0
89.149536548,1673.0
89.166247817,1701.0
89.182959086,1643.0
89.199670355,1610.0
89.216381624,1727.0
89.233092893,1662.0
89.249804162,1600.0
89.266515431,1695.0
89.283226700,1700.0
89.299937969,1673.0
89.316649238,1687.0
89.333360507,1691.0
89.350071776,1689.0
89.366783045,1771.0
89.383494314,1741.0
89.400205583,1734.0
89.416916852,1685.0
89.433628121,1793.0
89.450339390,1721.0
89.467050659,1812.0
89.483761928,1858.0
89.500473197,1831.0
89.517184466,1805.0
89.533895735,1823.0
89.550607004,1903.0
89.567318273,1942.0
89.584029542,1970.0
89.600740811,1971.0
89.617452080,2016.0
89.634163349,2123.0
89.650874618,2158.0
89.667585887,2269.0
89.684297156,2482.0
89.701008425,2637.0
89.717719694,3174.0
89.734430962,3670.0
89.751142231,4306.0
89.767853500,5494.0
89.784564769,6923.0
89.801276038,8214.0
89.817987307,8685.0
89.834698576,8072.0
89.851409845,6875.0
89.868121114,5655.0
89.884832383,4484.0
89.901543652,3796.0
89.918254921,3251.0
89.934966190,2873.0
89.951677459,2739.0
89.968388728,2651.0
89.985099997,2599.0
90.001811266,2720.0
90.018522535,2949.0
90.035233804,3137.0
90.051945073,3677.0
90.068656342,4210.0
90.085367611,4842.0
90.102078880,5138.0
90.118790149,5018.0
90.135501418,4369.0
90.152212687,3587.0
90.168923956,3197.0
90.185635225,2787.0
90.202346494,2463.0
90.219057763,2267.0
90.235769032,2023.0
90.252480301,2089.0
90.269191570,2007.0
90.285902839,1832.0
90.302614108,1868.0
90.319325377,1831.0
90.336036646,1816.0
90.352747915,1766.0
90.369459184,1786.0
90.386170453,1779.0
90.402881722,1793.0
90.419592991,1800.0
90.436304260,1675.0
90.453015529,1783.0
90.469726798,1607.0
90.486438067,1704.0
90.503149336,1661.0
90.519860605,1687.0
90.536571874,1653.0
90.553283142,1630.0
90.569994411,1707.0
90.586705680,1666.0
90.603416949,1600.0
90.620128218,1643.0
90.636839487,1612.0
90.653550756,1644.0
90.670262025,1605.0
90.686973294,1673.0
90.703684563,1678.0
90.720395832,1691.0
90.737107101,1650.0
90.753818370,1698.0
90.770529639,1661.0
90.787240908,1626.0
90.803952177,1661.0
90.820663446,1647.0
90.837374715,1662.0
90.854085984,1613.0
90.870797253,1663.0
90.887508522,1733.0
90.904219791,1649.0
90.920931060,1685.0
90.937642329,1627.0
90.954353598,1594.0
90.971064867,1730.0
90.987776136,1609.0
91.004487405,1550.0
91.021198674,1615.0
91.037909943,1592.0
91.054621212,1646.0
91.071332481,1615.0
91.088043750,1633.0
91.104755019,1631.0
91.121466288,1587.0
91.138177557,1603.0
91.154888826,1593.0
91.171600095,1619.0
91.188311364,1691.0
91.205022633,1612.0
91.221733902,1723.0
91.238445171,1613.0
91.255156440,1562.0
91.271867709,1656.0
91.288578978,1659.0
91.305290247,1648.0
91.322001516,1644.0
91.338712785,1667.0
91.355424054,1686.0
91.372135322,1674.0
91.388846591,1635.0
91.405557860,1603.0
91.422269129,1643.0
91.438980398,1595.0
91.455691667,1641.0
91.472402936,1643.0
91.489114205,1581.0
91.505825474,1590.0
91.522536743,1622.0
91.539248012,1542.0
91.555959281,1602.0
91.572670550,1644.0
91.589381819,1711.0
91.606093088,1593.0
91.622804357,1647.0
91.639515626,1596.0
91.656226895,1632.0
91.672938164,1639.0
91.689649433,1595.0
91.706360702,1610.0
91.723071971,1677.0
91.739783240,1717.0
91.756494509,1667.0
91.773205778,1507.0
91.789917047,1634.0
91.806628316,1639.0
91.823339585,1688.0
91.840050854,1703.0
91.856762123,1620.0
91.873473392,1596.0
91.890184661,1653.0
91.906895930,1584.0
91.923607199,1708.0
91.940318468,1658.0
91.957029737,1584.0
91.973741006,1704.0
91.990452275,1656.0
92.007163544,1610.0
92.023874813,1690.0
92.040586082,1572.0
92.057297351,1685.0
92.074008620,1600.0
92.090719889,1652.0
92.107431158,1639.0
92.124142427,1692.0
92.140853696,1610.0
92.157564965,1636.0
92.174276233,1638.0
92.190987502,1613.0
92.207698771,1576.0
92.224410040,1692.0
92.241121309,1634.0
92.257832578,1520.0
92.274543847,1641.0
92.291255116,1647.0
92.307966385,1623.0
92.324677654,1671.0
92.341388923,1588.0
92.358100192,1529.0
92.374811461,1671.0
92.391522730,1626.0
92.408233999,1670.0
92.424945268,1648.0
92.441656537,1564.0
92.458367806,1688.0
92.475079075,1695.0
92.491790344,1669.0
92.508501613,1714.0
92.525212882,1654.0
92.541924151,1549.0
92.558635420,1676.0
92.575346689,1577.0
92.592057958,1601.0
92.608769227,1596.0
92.625480496,1627.0
92.642191765,1638.0
92.658903034,1605.0
92.675614303,1601.0
92.692325572,1609.0
92.709036841,1581.0
92.725748110,1679.0
92.742459379,1590.0
92.759170648,1648.0
92.775881917,1671.0
92.792593186,1577.0
92.809304455,1691.0
92.826015724,1732.0
92.842726993,1575.0
92.859438262,1630.0
92.876149531,1626.0
92.892860800,1637.0
92.909572069,1585.0
92.926283338,1670.0
92.942994607,1557.0
92.959705876,1646.0
92.976417145,1686.0
92.993128413,1574.0
93.009839682,1651.0
93.026550951,1565.0
93.043262220,1579.0
93.059973489,1585.0
93.076684758,1671.0
93.093396027,1585.0
93.110107296,1598.0
93.126818565,1626.0
93.143529834,1624.0
93.160241103,1624.0
93.176952372,1650.0
93.193663641,1590.0
93.210374910,1615.0
93.227086179,1614.0
93.243797448,1635.0
93.260508717,1647.0
93.277219986,1622.0
93.293931255,1643.0
93.310642524,1707.0
93.327353793,1607.0
93.344065062,1572.0
93.360776331,1675.0
93.377487600,1571.0
93.394198869,1589.0
93.410910138,1666.0
93.427621407,1635.0
93.444332676,1559.0
93.461043945,1716.0
93.477755214,1643.0
93.494466483,1746.0
93.511177752,1652.0
93.527889021,1677.0
93.544600290,1608.0
93.561311559,1652.0
93.578022828,1575.0
93.594734097,1594.0
93.611445366,1678.0
93.628156635,1580.0
93.644867904,1687.0
93.661579173,1673.0
93.678290442,1633.0
93.695001711,1631.0
93.711712980,1569.0
93.728424249,1585.0
93.745135518,1667.0
93.761846787,1685.0
93.778558056,1748.0
93.795269325,1584.0
93.811980593,1684.0
93.828691862,1571.0
93.845403131,1675.0
93.862114400,1579.0
93.878825669,1597.0
93.895536938,1628.0
93.912248207,1609.0
93.928959476,1600.0
93.945670745,1598.0
93.962382014,1637.0
93.979093283,1639.0
93.995804552,1679.0
94.012515821,1611.0
94.029227090,1650.0
94.045938359,1638.0
94.062649628,1641.0
94.079360897,1603.0
94.096072166,1682.0
94.112783435,1620.0
94.129494704,1711.0
94.146205973,1736.0
94.162917242,1542.0
94.179628511,1648.0
94.196339780,1700.0
94.213051049,1647.0
94.229762318,1720.0
94.246473587,1645.0
94.263184856,1580.0
94.279896125,1708.0
94.296607394,1645.0
94.313318663,1704.0
94.330029932,1748.0
94.346741201,1711.0
94.363452470,1598.0
94.380163739,1625.0
94.396875008,1657.0
94.413586277,1737.0
94.430297546,1679.0
94.447008815,1637.0
94.463720084,1751.0
94.480431353,1749.0
94.497142622,1684.0
94.513853891,1687.0
94.530565160,1696.0
94.547276429,1709.0
94.563987698,1722.0
94.580698967,1671.0
94.597410236,1800.0
94.614121504,1664.0
94.630832773,1767.0
94.647544042,1716.0
94.664255311,1705.0
94.680966580,1802.0
94.697677849,1794.0
94.714389118,1768.0
94.731100387,1818.0
94.747811656,1921.0
94.764522925,1913.0
94.781234194,1893.0
94.797945463,1903.0
94.814656732,1966.0
94.831368001,2030.0
94.848079270,1987.0
94.864790539,2033.0
94.881501808,2132.0
94.898213077,2281.0
94.914924346,2427.0
94.931635615,2673.0
94.948346884,3131.0
94.965058153,3853.0
94.981769422,4882.0
94.998480691,6741.0
95.015191960,8367.0
