[Measurement conditions]
Sample identification,
Comment - 1,"finito"
Comment - 2,"Configuration=MRI TC-Basic Stage, Owner=User-1, Creation date=26-10-2009 9:18:44"
Comment - 3,"Goniometer=PW3050/60 (Theta/Theta); Minimum step size 2Theta:0.001; Minimum step size Omega:0.001"
Comment - 4,"Sample stage=MRI TC-Basic (PtRh heat strip)"
Comment - 5,"Diffractometer system=XPERT-PRO"
Comment - 6,"Measurement program=FlatStage, Owner=joana, Creation date=03-08-2011 15:43:53"
Anode material,Cu
K-Alpha1 wavelength,1.5405980
K-Alpha2 wavelength,1.5444260
Ratio K-Alpha2/K-Alpha1,0.500
Divergence slit,Fixed,0.76mm
Monochromator used,NO
Generator voltage, 45
Tube current, 40
File date and time,06/Dec/2012 20:43
Unit cell,
h k l, 0 0 0
Temperature [K],423
Scan axis,Gonio
Scan range,24.999999996,100.000175174
Scan step size,0.0167113
No. of points, 4488
Scan type,CONTINUOUS
Time per step,53.340
[Scan points]
Angle,Intensity
25.008355630,4567.0
25.025066899,4629.0
25.041778168,4584.0
25.058489437,4614.0
25.075200706,4540.0
25.091911975,4515.0
25.108623244,4555.0
25.125334513,4637.0
25.142045782,4570.0
25.158757051,4555.0
25.175468320,4584.0
25.192179589,4606.0
25.208890858,4500.0
25.225602127,4565.0
25.242313396,4591.0
25.259024665,4421.0
25.275735934,4508.0
25.292447203,4497.0
25.309158472,4697.0
25.325869741,4587.0
25.342581010,4485.0
25.359292279,4593.0
25.376003548,4744.0
25.392714817,4613.0
25.409426086,4585.0
25.426137354,4756.0
25.442848623,4601.0
25.459559892,4379.0
25.476271161,4576.0
25.492982430,4600.0
25.509693699,4484.0
25.526404968,4579.0
25.543116237,4520.0
25.559827506,4538.0
25.576538775,4536.0
25.593250044,4634.0
25.609961313,4619.0
25.626672582,4600.0
25.643383851,4586.0
25.660095120,4485.0
25.676806389,4450.0
25.693517658,4646.0
25.710228927,4659.0
25.726940196,4509.0
25.743651465,4541.0
25.760362734,4502.0
25.777074003,4514.0
25.793785272,4621.0
25.810496541,4470.0
25.827207810,4605.0
25.843919079,4469.0
25.860630348,4594.0
25.877341617,4611.0
25.894052886,4520.0
25.910764155,4525.0
25.927475424,4443.0
25.944186693,4553.0
25.960897962,4532.0
25.977609231,4589.0
25.994320500,4510.0
26.011031769,4464.0
26.027743038,4700.0
26.044454307,4418.0
26.061165576,4508.0
26.077876845,4593.0
26.094588114,4487.0
26.111299383,4573.0
26.128010652,4491.0
26.144721921,4587.0
26.161433190,4527.0
26.178144459,4453.0
26.194855728,4646.0
26.211566997,4525.0
26.228278265,4592.0
26.244989534,4466.0
26.261700803,4464.0
26.278412072,4474.0
26.295123341,4578.0
26.311834610,4505.0
26.328545879,4618.0
26.345257148,4555.0
26.361968417,4559.0
26.378679686,4504.0
26.395390955,4634.0
26.412102224,4587.0
26.428813493,4427.0
26.445524762,4447.0
26.462236031,4532.0
26.478947300,4600.0
26.495658569,4564.0
26.512369838,4599.0
26.529081107,4561.0
26.545792376,4602.0
26.562503645,4526.0
26.579214914,4527.0
26.595926183,4516.0
26.612637452,4461.0
26.629348721,4496.0
26.646059990,4587.0
26.662771259,4616.0
26.679482528,4494.0
26.696193797,4521.0
26.712905066,4459.0
26.729616335,4486.0
26.746327604,4570.0
26.763038873,4544.0
26.779750142,4598.0
26.796461411,4496.0
26.813172680,4668.0
26.829883949,4457.0
26.846595218,4502.0
26.863306487,4464.0
26.880017756,4534.0
26.896729025,4550.0
26.913440294,4478.0
26.930151563,4582.0
26.946862832,4632.0
26.963574101,4503.0
26.980285370,4522.0
26.996996639,4605.0
27.013707908,4571.0
27.030419176,4476.0
27.047130445,4658.0
27.063841714,4538.0
27.080552983,4602.0
27.097264252,4592.0
27.113975521,4509.0
27.130686790,4541.0
27.147398059,4654.0
27.164109328,4488.0
27.180820597,4431.0
27.197531866,4453.0
27.214243135,4471.0
27.230954404,4484.0
27.247665673,4506.0
27.264376942,4441.0
27.281088211,4532.0
27.297799480,4556.0
27.314510749,4471.0
27.331222018,4635.0
27.347933287,4601.0
27.364644556,4405.0
27.381355825,4557.0
27.398067094,4554.0
27.414778363,4583.0
27.431489632,4458.0
27.448200901,4509.0
27.464912170,4540.0
27.481623439,4507.0
27.498334708,4476.0
27.515045977,4548.0
27.531757246,4430.0
27.548468515,4523.0
27.565179784,4536.0
27.581891053,4415.0
27.598602322,4535.0
27.615313591,4633.0
27.632024860,4472.0
27.648736129,4486.0
27.665447398,4512.0
27.682158667,4538.0
27.698869936,4596.0
27.715581205,4502.0
27.732292474,4406.0
27.749003743,4522.0
27.765715012,4478.0
27.782426281,4547.0
27.799137550,4434.0
27.815848819,4540.0
27.832560087,4605.0
27.849271356,4577.0
27.865982625,4528.0
27.882693894,4451.0
27.899405163,4574.0
27.916116432,4585.0
27.932827701,4434.0
27.949538970,4343.0
27.966250239,4471.0
27.982961508,4434.0
27.999672777,4512.0
28.016384046,4583.0
28.033095315,4590.0
28.049806584,4525.0
28.066517853,4479.0
28.083229122,4429.0
28.099940391,4520.0
28.116651660,4549.0
28.133362929,4547.0
28.150074198,4441.0
28.166785467,4555.0
28.183496736,4593.0
28.200208005,4649.0
28.216919274,4550.0
28.233630543,4460.0
28.250341812,4630.0
28.267053081,4670.0
28.283764350,4528.0
28.300475619,4434.0
28.317186888,4508.0
28.333898157,4407.0
28.350609426,4603.0
28.367320695,4582.0
28.384031964,4595.0
28.400743233,4636.0
28.417454502,4472.0
28.434165771,4381.0
28.450877040,4614.0
28.467588309,4550.0
28.484299578,4481.0
28.501010847,4580.0
28.517722116,4514.0
28.534433385,4539.0
28.551144654,4501.0
28.567855923,4427.0
28.584567192,4544.0
28.601278461,4481.0
28.617989730,4490.0
28.634700999,4466.0
28.651412267,4613.0
28.668123536,4612.0
28.684834805,4533.0
28.701546074,4318.0
28.718257343,4477.0
28.734968612,4449.0
28.751679881,4397.0
28.768391150,4544.0
28.785102419,4595.0
28.801813688,4484.0
28.818524957,4493.0
28.835236226,4454.0
28.851947495,4510.0
28.868658764,4423.0
28.885370033,4534.0
28.902081302,4506.0
28.918792571,4516.0
28.935503840,4487.0
28.952215109,4451.0
28.968926378,4510.0
28.985637647,4563.0
29.002348916,4571.0
29.019060185,4491.0
29.035771454,4543.0
29.052482723,4544.0
29.069193992,4494.0
29.085905261,4552.0
29.102616530,4513.0
29.119327799,4585.0
29.136039068,4508.0
29.152750337,4480.0
29.169461606,4506.0
29.186172875,4530.0
29.202884144,4562.0
29.219595413,4569.0
29.236306682,4616.0
29.253017951,4552.0
29.269729220,4525.0
29.286440489,4560.0
29.303151758,4590.0
29.319863027,4588.0
29.336574296,4479.0
29.353285565,4491.0
29.369996834,4490.0
29.386708103,4634.0
29.403419372,4533.0
29.420130641,4555.0
29.436841910,4627.0
29.453553178,4498.0
29.470264447,4563.0
29.486975716,4521.0
29.503686985,4498.0
29.520398254,4620.0
29.537109523,4396.0
29.553820792,4456.0
29.570532061,4438.0
29.587243330,4472.0
29.603954599,4449.0
29.620665868,4472.0
29.637377137,4356.0
29.654088406,4462.0
29.670799675,4465.0
29.687510944,4424.0
29.704222213,4394.0
29.720933482,4558.0
29.737644751,4474.0
29.754356020,4430.0
29.771067289,4371.0
29.787778558,4530.0
29.804489827,4489.0
29.821201096,4333.0
29.837912365,4367.0
29.854623634,4333.0
29.871334903,4459.0
29.888046172,4543.0
29.904757441,4488.0
29.921468710,4537.0
29.938179979,4501.0
29.954891248,4566.0
29.971602517,4487.0
29.988313786,4503.0
30.005025055,4479.0
30.021736324,4415.0
30.038447593,4578.0
30.055158862,4544.0
30.071870131,4560.0
30.088581400,4537.0
30.105292669,4500.0
30.122003938,4482.0
30.138715207,4420.0
30.155426476,4510.0
30.172137745,4395.0
30.188849014,4525.0
30.205560283,4392.0
30.222271552,4605.0
30.238982821,4473.0
30.255694089,4575.0
30.272405358,4543.0
30.289116627,4488.0
30.305827896,4389.0
30.322539165,4507.0
30.339250434,4612.0
30.355961703,4388.0
30.372672972,4422.0
30.389384241,4592.0
30.406095510,4308.0
30.422806779,4471.0
30.439518048,4542.0
30.456229317,4515.0
30.472940586,4363.0
30.489651855,4443.0
30.506363124,4588.0
30.523074393,4511.0
30.539785662,4509.0
30.556496931,4546.0
30.573208200,4368.0
30.589919469,4484.0
30.606630738,4520.0
30.623342007,4501.0
30.640053276,4338.0
30.656764545,4504.0
30.673475814,4423.0
30.690187083,4375.0
30.706898352,4492.0
30.723609621,4462.0
30.740320890,4534.0
30.757032159,4358.0
30.773743428,4572.0
30.790454697,4527.0
30.807165966,4455.0
30.823877235,4555.0
30.840588504,4514.0
30.857299773,4460.0
30.874011042,4428.0
30.890722311,4437.0
30.907433580,4480.0
30.924144849,4502.0
30.940856118,4355.0
30.957567387,4445.0
30.974278656,4279.0
30.990989925,4504.0
31.007701194,4406.0
31.024412463,4566.0
31.041123732,4440.0
31.057835000,4512.0
31.074546269,4488.0
31.091257538,4567.0
31.107968807,4486.0
31.124680076,4514.0
31.141391345,4284.0
31.158102614,4492.0
31.174813883,4546.0
31.191525152,4422.0
31.208236421,4486.0
31.224947690,4445.0
31.241658959,4527.0
31.258370228,4463.0
31.275081497,4433.0
31.291792766,4515.0
31.308504035,4631.0
31.325215304,4395.0
31.341926573,4497.0
31.358637842,4525.0
31.375349111,4487.0
31.392060380,4391.0
31.408771649,4399.0
31.425482918,4462.0
31.442194187,4443.0
31.458905456,4444.0
31.475616725,4530.0
31.492327994,4425.0
31.509039263,4391.0
31.525750532,4344.0
31.542461801,4430.0
31.559173070,4516.0
31.575884339,4499.0
31.592595608,4398.0
31.609306877,4397.0
31.626018146,4653.0
31.642729415,4504.0
31.659440684,4443.0
31.676151953,4553.0
31.692863222,4381.0
31.709574491,4532.0
31.726285760,4458.0
31.742997029,4405.0
31.759708298,4432.0
31.776419567,4651.0
31.793130836,4408.0
31.809842105,4418.0
31.826553374,4530.0
31.843264643,4415.0
31.859975912,4419.0
31.876687180,4464.0
31.893398449,4468.0
31.910109718,4508.0
31.926820987,4481.0
31.943532256,4451.0
31.960243525,4515.0
31.976954794,4574.0
31.993666063,4486.0
32.010377332,4532.0
32.027088601,4607.0
32.043799870,4456.0
32.060511139,4433.0
32.077222408,4478.0
32.093933677,4407.0
32.110644946,4543.0
32.127356215,4458.0
32.144067484,4495.0
32.160778753,4425.0
32.177490022,4571.0
32.194201291,4377.0
32.210912560,4442.0
32.227623829,4441.0
32.244335098,4587.0
32.261046367,4620.0
32.277757636,4437.0
32.294468905,4610.0
32.311180174,4442.0
32.327891443,4442.0
32.344602712,4345.0
32.361313981,4322.0
32.378025250,4394.0
32.394736519,4524.0
32.411447788,4396.0
32.428159057,4514.0
32.444870326,4417.0
32.461581595,4438.0
32.478292864,4341.0
32.495004133,4388.0
32.511715402,4458.0
32.528426671,4446.0
32.545137940,4453.0
32.561849209,4480.0
32.578560478,4522.0
32.595271747,4425.0
32.611983016,4439.0
32.628694285,4511.0
32.645405554,4321.0
32.662116823,4415.0
32.678828091,4376.0
32.695539360,4451.0
32.712250629,4433.0
32.728961898,4483.0
32.745673167,4404.0
32.762384436,4541.0
32.779095705,4398.0
32.795806974,4429.0
32.812518243,4449.0
32.829229512,4363.0
32.845940781,4504.0
32.862652050,4545.0
32.879363319,4447.0
32.896074588,4611.0
32.912785857,4465.0
32.929497126,4436.0
32.946208395,4406.0
32.962919664,4413.0
32.979630933,4552.0
32.996342202,4453.0
33.013053471,4499.0
33.029764740,4407.0
33.046476009,4457.0
33.063187278,4550.0
33.079898547,4356.0
33.096609816,4437.0
33.113321085,4419.0
33.130032354,4454.0
33.146743623,4409.0
33.163454892,4443.0
33.180166161,4430.0
33.196877430,4511.0
33.213588699,4517.0
33.230299968,4517.0
33.247011237,4584.0
33.263722506,4574.0
33.280433775,4488.0
33.297145044,4362.0
33.313856313,4424.0
33.330567582,4350.0
33.347278851,4520.0
33.363990120,4360.0
33.380701389,4359.0
33.397412658,4402.0
33.414123927,4377.0
33.430835196,4452.0
33.447546465,4464.0
33.464257734,4447.0
33.480969002,4550.0
33.497680271,4427.0
33.514391540,4479.0
33.531102809,4446.0
33.547814078,4485.0
33.564525347,4344.0
33.581236616,4437.0
33.597947885,4639.0
33.614659154,4389.0
33.631370423,4356.0
33.648081692,4383.0
33.664792961,4407.0
33.681504230,4390.0
33.698215499,4457.0
33.714926768,4499.0
33.731638037,4495.0
33.748349306,4335.0
33.765060575,4346.0
33.781771844,4419.0
33.798483113,4383.0
33.815194382,4516.0
33.831905651,4560.0
33.848616920,4405.0
33.865328189,4531.0
33.882039458,4375.0
33.898750727,4495.0
33.915461996,4675.0
33.932173265,4512.0
33.948884534,4503.0
33.965595803,4415.0
33.982307072,4576.0
33.999018341,4446.0
34.015729610,4427.0
34.032440879,4496.0
34.049152148,4520.0
34.065863417,4447.0
34.082574686,4483.0
34.099285955,4412.0
34.115997224,4430.0
34.132708493,4347.0
34.149419762,4544.0
34.166131031,4479.0
34.182842300,4390.0
34.199553569,4410.0
34.216264838,4446.0
34.232976107,4382.0
34.249687376,4472.0
34.266398645,4395.0
34.283109913,4384.0
34.299821182,4469.0
34.316532451,4413.0
34.333243720,4382.0
34.349954989,4485.0
34.366666258,4551.0
34.383377527,4388.0
34.400088796,4404.0
34.416800065,4575.0
34.433511334,4469.0
34.450222603,4485.0
34.466933872,4373.0
34.483645141,4382.0
34.500356410,4552.0
34.517067679,4543.0
34.533778948,4512.0
34.550490217,4407.0
34.567201486,4454.0
34.583912755,4561.0
34.600624024,4454.0
34.617335293,4422.0
34.634046562,4424.0
34.650757831,4500.0
34.667469100,4509.0
34.684180369,4486.0
34.700891638,4453.0
34.717602907,4393.0
34.734314176,4428.0
34.751025445,4402.0
34.767736714,4392.0
34.784447983,4474.0
34.801159252,4412.0
34.817870521,4477.0
34.834581790,4508.0
34.851293059,4362.0
34.868004328,4362.0
34.884715597,4514.0
34.901426866,4381.0
34.918138135,4414.0
34.934849404,4443.0
34.951560673,4564.0
34.968271942,4472.0
34.984983211,4333.0
35.001694480,4279.0
35.018405749,4566.0
35.035117018,4443.0
35.051828287,4381.0
35.068539556,4444.0
35.085250825,4545.0
35.101962093,4358.0
35.118673362,4586.0
35.135384631,4401.0
35.152095900,4640.0
35.168807169,4360.0
35.185518438,4371.0
35.202229707,4410.0
35.218940976,4593.0
35.235652245,4428.0
35.252363514,4399.0
35.269074783,4456.0
35.285786052,4565.0
35.302497321,4400.0
35.319208590,4427.0
35.335919859,4443.0
35.352631128,4474.0
35.369342397,4406.0
35.386053666,4479.0
35.402764935,4461.0
35.419476204,4448.0
35.436187473,4595.0
35.452898742,4411.0
35.469610011,4397.0
35.486321280,4448.0
35.503032549,4553.0
35.519743818,4578.0
35.536455087,4503.0
35.553166356,4439.0
35.569877625,4358.0
35.586588894,4407.0
35.603300163,4591.0
35.620011432,4443.0
35.636722701,4428.0
35.653433970,4476.0
35.670145239,4476.0
35.686856508,4539.0
35.703567777,4419.0
35.720279046,4510.0
35.736990315,4490.0
35.753701584,4469.0
35.770412853,4497.0
35.787124122,4337.0
35.803835391,4603.0
35.820546660,4388.0
35.837257929,4443.0
35.853969198,4551.0
35.870680467,4459.0
35.887391736,4464.0
35.904103004,4506.0
35.920814273,4435.0
35.937525542,4506.0
35.954236811,4383.0
35.970948080,4522.0
35.987659349,4392.0
36.004370618,4335.0
36.021081887,4307.0
36.037793156,4511.0
36.054504425,4465.0
36.071215694,4426.0
36.087926963,4507.0
36.104638232,4528.0
36.121349501,4410.0
36.138060770,4422.0
36.154772039,4434.0
36.171483308,4543.0
36.188194577,4444.0
36.204905846,4439.0
36.221617115,4458.0
36.238328384,4528.0
36.255039653,4491.0
36.271750922,4436.0
36.288462191,4420.0
36.305173460,4475.0
36.321884729,4521.0
36.338595998,4481.0
36.355307267,4432.0
36.372018536,4421.0
36.388729805,4308.0
36.405441074,4433.0
36.422152343,4472.0
36.438863612,4372.0
36.455574881,4434.0
36.472286150,4426.0
36.488997419,4410.0
36.505708688,4459.0
36.522419957,4511.0
36.539131226,4453.0
36.555842495,4580.0
36.572553764,4369.0
36.589265033,4491.0
36.605976302,4548.0
36.622687571,4497.0
36.639398840,4491.0
36.656110109,4461.0
36.672821378,4469.0
36.689532647,4587.0
36.706243915,4584.0
36.722955184,4418.0
36.739666453,4458.0
36.756377722,4347.0
36.773088991,4490.0
36.789800260,4405.0
36.806511529,4482.0
36.823222798,4379.0
36.839934067,4448.0
36.856645336,4571.0
36.873356605,4360.0
36.890067874,4511.0
36.906779143,4475.0
36.923490412,4454.0
36.940201681,4512.0
36.956912950,4505.0
36.973624219,4521.0
36.990335488,4421.0
37.007046757,4366.0
37.023758026,4378.0
37.040469295,4450.0
37.057180564,4490.0
37.073891833,4353.0
37.090603102,4451.0
37.107314371,4544.0
37.124025640,4596.0
37.140736909,4512.0
37.157448178,4514.0
37.174159447,4412.0
37.190870716,4382.0
37.207581985,4534.0
37.224293254,4406.0
37.241004523,4595.0
37.257715792,4621.0
37.274427061,4424.0
37.291138330,4584.0
37.307849599,4431.0
37.324560868,4469.0
37.341272137,4474.0
37.357983406,4574.0
37.374694675,4618.0
37.391405944,4494.0
37.408117213,4569.0
37.424828482,4571.0
37.441539751,4438.0
37.458251020,4671.0
37.474962289,4472.0
37.491673558,4335.0
37.508384826,4537.0
37.525096095,4502.0
37.541807364,4521.0
37.558518633,4584.0
37.575229902,4663.0
37.591941171,4689.0
37.608652440,4685.0
37.625363709,4549.0
37.642074978,4594.0
37.658786247,4533.0
37.675497516,4477.0
37.692208785,4394.0
37.708920054,4472.0
37.725631323,4573.0
37.742342592,4530.0
37.759053861,4519.0
37.775765130,4584.0
37.792476399,4532.0
37.809187668,4448.0
37.825898937,4589.0
37.842610206,4501.0
37.859321475,4577.0
37.876032744,4499.0
37.892744013,4482.0
37.909455282,4501.0
37.926166551,4512.0
37.942877820,4438.0
37.959589089,4615.0
37.976300358,4497.0
37.993011627,4587.0
38.009722896,4499.0
38.026434165,4562.0
38.043145434,4609.0
38.059856703,4530.0
38.076567972,4521.0
38.093279241,4586.0
38.109990510,4537.0
38.126701779,4650.0
38.143413048,4636.0
38.160124317,4581.0
38.176835586,4668.0
38.193546855,4545.0
38.210258124,4541.0
38.226969393,4513.0
38.243680662,4597.0
38.260391931,4708.0
38.277103200,4687.0
38.293814469,4526.0
38.310525738,4629.0
38.327237006,4606.0
38.343948275,4518.0
38.360659544,4509.0
38.377370813,4635.0
38.394082082,4635.0
38.410793351,4548.0
38.427504620,4671.0
38.444215889,4606.0
38.460927158,4613.0
38.477638427,4610.0
38.494349696,4547.0
38.511060965,4583.0
38.527772234,4559.0
38.544483503,4528.0
38.561194772,4677.0
38.577906041,4695.0
38.594617310,4817.0
38.611328579,4603.0
38.628039848,4811.0
38.644751117,4712.0
38.661462386,4962.0
38.678173655,5194.0
38.694884924,5556.0
38.711596193,5606.0
38.728307462,5493.0
38.745018731,5176.0
38.761730000,5087.0
38.778441269,4732.0
38.795152538,4658.0
38.811863807,4735.0
38.828575076,4691.0
38.845286345,4688.0
38.861997614,4608.0
38.878708883,4711.0
38.895420152,4539.0
38.912131421,4607.0
38.928842690,4640.0
38.945553959,4744.0
38.962265228,4654.0
38.978976497,4663.0
38.995687766,4646.0
39.012399035,4658.0
39.029110304,4716.0
39.045821573,4559.0
39.062532842,4651.0
39.079244111,4655.0
39.095955380,4680.0
39.112666649,4577.0
39.129377917,4624.0
39.146089186,4514.0
39.162800455,4623.0
39.179511724,4702.0
39.196222993,4559.0
39.212934262,4587.0
39.229645531,4651.0
39.246356800,4769.0
39.263068069,4448.0
39.279779338,4635.0
39.296490607,4656.0
39.313201876,4715.0
39.329913145,4540.0
39.346624414,4539.0
39.363335683,4712.0
39.380046952,4677.0
39.396758221,4618.0
39.413469490,4588.0
39.430180759,4636.0
39.446892028,4588.0
39.463603297,4686.0
39.480314566,4532.0
39.497025835,4498.0
39.513737104,4635.0
39.530448373,4603.0
39.547159642,4569.0
39.563870911,4563.0
39.580582180,4601.0
39.597293449,4652.0
39.614004718,4659.0
39.630715987,4583.0
39.647427256,4638.0
39.664138525,4605.0
39.680849794,4517.0
39.697561063,4584.0
39.714272332,4634.0
39.730983601,4706.0
39.747694870,4547.0
39.764406139,4611.0
39.781117408,4573.0
39.797828677,4500.0
39.814539946,4694.0
39.831251215,4549.0
39.847962484,4772.0
39.864673753,4660.0
39.881385022,4527.0
39.898096291,4670.0
39.914807560,4638.0
39.931518828,4655.0
39.948230097,4695.0
39.964941366,4631.0
39.981652635,4603.0
39.998363904,4555.0
40.015075173,4582.0
40.031786442,4584.0
40.048497711,4694.0
40.065208980,4623.0
40.081920249,4533.0
40.098631518,4603.0
40.115342787,4581.0
40.132054056,4664.0
40.148765325,4488.0
40.165476594,4454.0
40.182187863,4709.0
40.198899132,4837.0
40.215610401,4509.0
40.232321670,4513.0
40.249032939,4613.0
40.265744208,4554.0
40.282455477,4628.0
40.299166746,4437.0
40.315878015,4545.0
40.332589284,4571.0
40.349300553,4536.0
40.366011822,4544.0
40.382723091,4629.0
40.399434360,4525.0
40.416145629,4520.0
40.432856898,4557.0
40.449568167,4665.0
40.466279436,4692.0
40.482990705,4545.0
40.499701974,4636.0
40.516413243,4682.0
40.533124512,4571.0
40.549835781,4513.0
40.566547050,4611.0
40.583258319,4568.0
40.599969588,4542.0
40.616680857,4669.0
40.633392126,4492.0
40.650103395,4542.0
40.666814664,4548.0
40.683525933,4626.0
40.700237202,4597.0
40.716948471,4649.0
40.733659739,4606.0
40.750371008,4669.0
40.767082277,4512.0
40.783793546,4560.0
40.800504815,4520.0
40.817216084,4737.0
40.833927353,4615.0
40.850638622,4600.0
40.867349891,4476.0
40.884061160,4758.0
40.900772429,4712.0
40.917483698,4624.0
40.934194967,4590.0
40.950906236,4685.0
40.967617505,4529.0
40.984328774,4677.0
41.001040043,4754.0
41.017751312,4678.0
41.034462581,4699.0
41.051173850,4650.0
41.067885119,4662.0
41.084596388,4550.0
41.101307657,4778.0
41.118018926,4583.0
41.134730195,4651.0
41.151441464,4775.0
41.168152733,4618.0
41.184864002,4631.0
41.201575271,4639.0
41.218286540,4739.0
41.234997809,4704.0
41.251709078,4728.0
41.268420347,4814.0
41.285131616,4684.0
41.301842885,4692.0
41.318554154,4814.0
41.335265423,4614.0
41.351976692,4614.0
41.368687961,4695.0
41.385399230,4714.0
41.402110499,4734.0
41.418821768,4710.0
41.435533037,4716.0
41.452244306,4879.0
41.468955575,4817.0
41.485666844,4963.0
41.502378113,5218.0
41.519089382,5293.0
41.535800651,5486.0
41.552511919,5448.0
41.569223188,5634.0
41.585934457,5582.0
41.602645726,5541.0
41.619356995,5482.0
41.636068264,5555.0
41.652779533,5480.0
41.669490802,5343.0
41.686202071,5489.0
41.702913340,5448.0
41.719624609,5500.0
41.736335878,5445.0
41.753047147,5462.0
41.769758416,5503.0
41.786469685,5464.0
41.803180954,5478.0
41.819892223,5571.0
41.836603492,5733.0
41.853314761,5475.0
41.870026030,5573.0
41.886737299,5497.0
41.903448568,5545.0
41.920159837,5634.0
41.936871106,5650.0
41.953582375,5684.0
41.970293644,5616.0
41.987004913,5584.0
42.003716182,5546.0
42.020427451,5699.0
42.037138720,5689.0
42.053849989,5730.0
42.070561258,5735.0
42.087272527,5732.0
42.103983796,5863.0
42.120695065,5884.0
42.137406334,5971.0
42.154117603,5923.0
42.170828872,5767.0
42.187540141,5745.0
42.204251410,5787.0
42.220962679,5758.0
42.237673948,5720.0
42.254385217,5781.0
42.271096486,5626.0
42.287807755,5848.0
42.304519024,5786.0
42.321230293,5820.0
42.337941562,5574.0
42.354652830,5784.0
42.371364099,5741.0
42.388075368,5846.0
42.404786637,5721.0
42.421497906,5890.0
42.438209175,5997.0
42.454920444,6027.0
42.471631713,6009.0
42.488342982,5990.0
42.505054251,6055.0
42.521765520,6032.0
42.538476789,6224.0
42.555188058,6189.0
42.571899327,6279.0
42.588610596,6319.0
42.605321865,6529.0
42.622033134,6321.0
42.638744403,6726.0
42.655455672,6775.0
42.672166941,6958.0
42.688878210,7382.0
42.705589479,7867.0
42.722300748,8400.0
42.739012017,9325.0
42.755723286,10131.0
42.772434555,11257.0
42.789145824,12014.0
42.805857093,13244.0
42.822568362,14035.0
42.839279631,15477.0
42.855990900,17004.0
42.872702169,18666.0
42.889413438,19673.0
42.906124707,21927.0
42.922835976,25639.0
42.939547245,31867.0
42.956258514,42487.0
42.972969783,59450.0
42.989681052,86877.0
43.006392321,134766.0
43.023103590,221035.0
43.039814859,351785.0
43.056526128,454242.0
43.073237397,403040.0
43.089948666,259415.0
43.106659935,155937.0
43.123371204,126195.0
43.140082473,151608.0
43.156793741,207710.0
43.173505010,236532.0
43.190216279,188781.0
43.206927548,113463.0
43.223638817,61109.0
43.240350086,36391.0
43.257061355,25429.0
43.273772624,19996.0
43.290483893,16598.0
43.307195162,14585.0
43.323906431,12962.0
43.340617700,11926.0
43.357328969,11115.0
43.374040238,10197.0
43.390751507,9541.0
43.407462776,8817.0
43.424174045,8196.0
43.440885314,7768.0
43.457596583,7738.0
43.474307852,7389.0
43.491019121,7139.0
43.507730390,7099.0
43.524441659,6945.0
43.541152928,6763.0
43.557864197,6692.0
43.574575466,6539.0
43.591286735,6455.0
43.607998004,6441.0
43.624709273,6394.0
43.641420542,6215.0
43.658131811,6195.0
43.674843080,6219.0
43.691554349,6242.0
43.708265618,6145.0
43.724976887,6036.0
43.741688156,5955.0
43.758399425,5991.0
43.775110694,5821.0
43.791821963,5952.0
43.808533232,5896.0
43.825244501,5816.0
43.841955770,5844.0
43.858667039,5692.0
43.875378308,5752.0
43.892089577,5758.0
43.908800846,5757.0
43.925512115,5695.0
43.942223384,5644.0
43.958934652,5702.0
43.975645921,5632.0
43.992357190,5548.0
44.009068459,5565.0
44.025779728,5582.0
44.042490997,5473.0
44.059202266,5463.0
44.075913535,5509.0
44.092624804,5593.0
44.109336073,5482.0
44.126047342,5452.0
44.142758611,5522.0
44.159469880,5450.0
44.176181149,5460.0
44.192892418,5488.0
44.209603687,5353.0
44.226314956,5522.0
44.243026225,5417.0
44.259737494,5449.0
44.276448763,5334.0
44.293160032,5451.0
44.309871301,5265.0
44.326582570,5311.0
44.343293839,5444.0
44.360005108,5476.0
44.376716377,5284.0
44.393427646,5414.0
44.410138915,5286.0
44.426850184,5307.0
44.443561453,5400.0
44.460272722,5327.0
44.476983991,5230.0
44.493695260,5308.0
44.510406529,5532.0
44.527117798,5377.0
44.543829067,5283.0
44.560540336,5283.0
44.577251605,5246.0
44.593962874,5245.0
44.610674143,5348.0
44.627385412,5209.0
44.644096681,5080.0
44.660807950,5210.0
44.677519219,5311.0
44.694230488,5256.0
44.710941757,5273.0
44.727653026,5231.0
44.744364295,5272.0
44.761075564,5320.0
44.777786832,5160.0
44.794498101,5332.0
44.811209370,5422.0
44.827920639,5358.0
44.844631908,5262.0
44.861343177,5206.0
44.878054446,5319.0
44.894765715,5247.0
44.911476984,5261.0
44.928188253,5295.0
44.944899522,5313.0
44.961610791,5265.0
44.978322060,5402.0
44.995033329,5790.0
45.011744598,5743.0
45.028455867,6030.0
45.045167136,6014.0
45.061878405,5694.0
45.078589674,5640.0
45.095300943,5495.0
45.112012212,5277.0
45.128723481,5309.0
45.145434750,5256.0
45.162146019,5293.0
45.178857288,5154.0
45.195568557,5253.0
45.212279826,5198.0
45.228991095,5088.0
45.245702364,5158.0
45.262413633,5179.0
45.279124902,5136.0
45.295836171,5139.0
45.312547440,5149.0
45.329258709,5152.0
45.345969978,5211.0
45.362681247,5112.0
45.379392516,5008.0
45.396103785,5129.0
45.412815054,5157.0
45.429526323,5043.0
45.446237592,5055.0
45.462948861,5196.0
45.479660130,5136.0
45.496371399,5170.0
45.513082668,5104.0
45.529793937,5140.0
45.546505206,4976.0
45.563216475,5103.0
45.579927743,5136.0
45.596639012,5081.0
45.613350281,5091.0
45.630061550,5103.0
45.646772819,5141.0
45.663484088,4960.0
45.680195357,5059.0
45.696906626,5084.0
45.713617895,5013.0
45.730329164,5017.0
45.747040433,5032.0
45.763751702,5067.0
45.780462971,4970.0
45.797174240,4989.0
45.813885509,5036.0
45.830596778,5033.0
45.847308047,5084.0
45.864019316,4974.0
45.880730585,4960.0
45.897441854,5164.0
45.914153123,5016.0
45.930864392,5018.0
45.947575661,5025.0
45.964286930,5021.0
45.980998199,5033.0
45.997709468,4964.0
46.014420737,4827.0
46.031132006,4972.0
46.047843275,4971.0
46.064554544,5061.0
46.081265813,5050.0
46.097977082,4895.0
46.114688351,4991.0
46.131399620,5121.0
46.148110889,5086.0
46.164822158,4941.0
46.181533427,4961.0
46.198244696,4959.0
46.214955965,4997.0
46.231667234,5135.0
46.248378503,5066.0
46.265089772,5024.0
46.281801041,5198.0
46.298512310,4871.0
46.315223579,4884.0
46.331934848,5043.0
46.348646117,4989.0
46.365357386,5084.0
46.382068654,5052.0
46.398779923,5055.0
46.415491192,5216.0
46.432202461,5238.0
46.448913730,5341.0
46.465624999,5255.0
46.482336268,5129.0
46.499047537,5181.0
46.515758806,5153.0
46.532470075,5390.0
46.549181344,5223.0
46.565892613,5357.0
46.582603882,5130.0
46.599315151,5217.0
46.616026420,4947.0
46.632737689,5029.0
46.649448958,5048.0
46.666160227,4952.0
46.682871496,5099.0
46.699582765,5098.0
46.716294034,4868.0
46.733005303,5116.0
46.749716572,5199.0
46.766427841,5456.0
46.783139110,5450.0
46.799850379,5492.0
46.816561648,5453.0
46.833272917,5276.0
46.849984186,5302.0
46.866695455,5261.0
46.883406724,5296.0
46.900117993,5225.0
46.916829262,5368.0
46.933540531,5150.0
46.950251800,5096.0
46.966963069,4995.0
46.983674338,4974.0
47.000385607,4939.0
47.017096876,4866.0
47.033808145,5011.0
47.050519414,4915.0
47.067230683,4846.0
47.083941952,4870.0
47.100653221,4897.0
47.117364490,4870.0
47.134075759,4950.0
47.150787028,5058.0
47.167498297,4967.0
47.184209565,4911.0
47.200920834,4908.0
47.217632103,4994.0
47.234343372,4947.0
47.251054641,4912.0
47.267765910,5036.0
47.284477179,4828.0
47.301188448,4906.0
47.317899717,4991.0
47.334610986,4765.0
47.351322255,4840.0
47.368033524,4855.0
47.384744793,4855.0
47.401456062,4815.0
47.418167331,4833.0
47.434878600,4861.0
47.451589869,4792.0
47.468301138,4752.0
47.485012407,4866.0
47.501723676,4942.0
47.518434945,4833.0
47.535146214,4869.0
47.551857483,4864.0
47.568568752,4776.0
47.585280021,4940.0
47.601991290,4928.0
47.618702559,4926.0
47.635413828,4779.0
47.652125097,4713.0
47.668836366,4754.0
47.685547635,4928.0
47.702258904,4827.0
47.718970173,4785.0
47.735681442,4817.0
47.752392711,4901.0
47.769103980,4818.0
47.785815249,4944.0
47.802526518,4784.0
47.819237787,4824.0
47.835949056,4791.0
47.852660325,4937.0
47.869371594,4815.0
47.886082863,4745.0
47.902794132,4779.0
47.919505401,4667.0
47.936216670,4806.0
47.952927939,4894.0
47.969639208,4879.0
47.986350477,4912.0
48.003061745,4785.0
48.019773014,4913.0
48.036484283,4792.0
48.053195552,4780.0
48.069906821,4868.0
48.086618090,4828.0
48.103329359,4927.0
48.120040628,4951.0
48.136751897,4854.0
48.153463166,4997.0
48.170174435,4947.0
48.186885704,4896.0
48.203596973,4818.0
48.220308242,4907.0
48.237019511,4876.0
48.253730780,4913.0
48.270442049,5100.0
48.287153318,4896.0
48.303864587,5028.0
48.320575856,5158.0
48.337287125,5272.0
48.353998394,5342.0
48.370709663,5370.0
48.387420932,5285.0
48.404132201,5378.0
48.420843470,5541.0
48.437554739,5439.0
48.454266008,5539.0
48.470977277,5605.0
48.487688546,5520.0
48.504399815,5426.0
48.521111084,5484.0
48.537822353,5434.0
48.554533622,5441.0
48.571244891,5252.0
48.587956160,5472.0
48.604667429,5346.0
48.621378698,5364.0
48.638089967,5519.0
48.654801236,5307.0
48.671512505,5439.0
48.688223774,5469.0
48.704935043,5581.0
48.721646312,5548.0
48.738357581,5503.0
48.755068850,5505.0
48.771780119,5562.0
48.788491388,5447.0
48.805202656,5585.0
48.821913925,5480.0
48.838625194,5513.0
48.855336463,5464.0
48.872047732,5547.0
48.888759001,5504.0
48.905470270,5507.0
48.922181539,5408.0
48.938892808,5488.0
48.955604077,5561.0
48.972315346,5507.0
48.989026615,5605.0
49.005737884,5931.0
49.022449153,5786.0
49.039160422,5797.0
49.055871691,5660.0
49.072582960,5738.0
49.089294229,5587.0
49.106005498,5623.0
49.122716767,5607.0
49.139428036,5652.0
49.156139305,5552.0
49.172850574,5586.0
49.189561843,5492.0
49.206273112,5619.0
49.222984381,5682.0
49.239695650,5596.0
49.256406919,5675.0
49.273118188,5613.0
49.289829457,5754.0
49.306540726,5617.0
49.323251995,5530.0
49.339963264,5622.0
49.356674533,5734.0
49.373385802,5513.0
49.390097071,5667.0
49.406808340,5640.0
49.423519609,5542.0
49.440230878,5658.0
49.456942147,5805.0
49.473653416,5750.0
49.490364685,5817.0
49.507075954,5897.0
49.523787223,5857.0
49.540498492,5680.0
49.557209761,5959.0
49.573921030,5839.0
49.590632299,5939.0
49.607343567,6060.0
49.624054836,5953.0
49.640766105,6127.0
49.657477374,5890.0
49.674188643,6191.0
49.690899912,6325.0
49.707611181,6409.0
49.724322450,6335.0
49.741033719,6661.0
49.757744988,6586.0
49.774456257,6872.0
49.791167526,7045.0
49.807878795,7475.0
49.824590064,7931.0
49.841301333,8585.0
49.858012602,9357.0
49.874723871,10462.0
49.891435140,11575.0
49.908146409,12388.0
49.924857678,13728.0
49.941568947,14646.0
49.958280216,15062.0
49.974991485,15760.0
49.991702754,16945.0
50.008414023,18323.0
50.025125292,20691.0
50.041836561,24246.0
50.058547830,30443.0
50.075259099,40160.0
50.091970368,56301.0
50.108681637,83125.0
50.125392906,127681.0
50.142104175,198590.0
50.158815444,290962.0
50.175526713,352982.0
50.192237982,316259.0
50.208949251,220228.0
50.225660520,141502.0
50.242371789,102474.0
50.259083058,98665.0
50.275794327,120983.0
50.292505596,159368.0
50.309216865,185248.0
50.325928134,165406.0
50.342639403,115878.0
50.359350672,71776.0
50.376061941,44146.0
50.392773210,29185.0
50.409484478,22326.0
50.426195747,17766.0
50.442907016,15270.0
50.459618285,13240.0
50.476329554,12179.0
50.493040823,11193.0
50.509752092,10347.0
50.526463361,9522.0
50.543174630,8892.0
50.559885899,8241.0
50.576597168,7712.0
50.593308437,7531.0
50.610019706,7313.0
50.626730975,7012.0
50.643442244,6814.0
50.660153513,6584.0
50.676864782,6384.0
50.693576051,6516.0
50.710287320,6429.0
50.726998589,6366.0
50.743709858,6139.0
50.760421127,6149.0
50.777132396,6018.0
50.793843665,6080.0
50.810554934,6038.0
50.827266203,6080.0
50.843977472,5953.0
50.860688741,5960.0
50.877400010,5899.0
50.894111279,5832.0
50.910822548,5646.0
50.927533817,5553.0
50.944245086,5654.0
50.960956355,5476.0
50.977667624,5591.0
50.994378893,5623.0
51.011090162,5602.0
51.027801431,5549.0
51.044512700,5547.0
51.061223969,5474.0
51.077935238,5405.0
51.094646507,5341.0
51.111357776,5352.0
51.128069045,5503.0
51.144780314,5399.0
51.161491583,5263.0
51.178202852,5370.0
51.194914121,5318.0
51.211625390,5252.0
51.228336658,5359.0
51.245047927,5255.0
51.261759196,5282.0
51.278470465,5231.0
51.295181734,5297.0
51.311893003,5319.0
51.328604272,5247.0
51.345315541,5334.0
51.362026810,5309.0
51.378738079,5277.0
51.395449348,5231.0
51.412160617,5238.0
51.428871886,5204.0
51.445583155,5112.0
51.462294424,5028.0
51.479005693,5192.0
51.495716962,5103.0
51.512428231,5078.0
51.529139500,4992.0
51.545850769,5116.0
51.562562038,5294.0
51.579273307,5121.0
51.595984576,5031.0
51.612695845,5165.0
51.629407114,5100.0
51.646118383,5085.0
51.662829652,5037.0
51.679540921,5024.0
51.696252190,5169.0
51.712963459,4987.0
51.729674728,5010.0
51.746385997,5185.0
51.763097266,4994.0
51.779808535,4937.0
51.796519804,5071.0
51.813231073,5162.0
51.829942342,5000.0
51.846653611,5133.0
51.863364880,5078.0
51.880076149,5127.0
51.896787418,5050.0
51.913498687,4910.0
51.930209956,5037.0
51.946921225,5091.0
51.963632494,4898.0
51.980343763,4960.0
51.997055032,5076.0
52.013766301,4964.0
52.030477569,5084.0
52.047188838,4880.0
52.063900107,4966.0
52.080611376,4950.0
52.097322645,5057.0
52.114033914,5067.0
52.130745183,5049.0
52.147456452,4964.0
52.164167721,4947.0
52.180878990,4954.0
52.197590259,4988.0
52.214301528,4932.0
52.231012797,4892.0
52.247724066,5014.0
52.264435335,4812.0
52.281146604,5027.0
52.297857873,4887.0
52.314569142,4871.0
52.331280411,4999.0
52.347991680,4965.0
52.364702949,5034.0
52.381414218,4988.0
52.398125487,4913.0
52.414836756,5008.0
52.431548025,5021.0
52.448259294,4853.0
52.464970563,4997.0
52.481681832,4907.0
52.498393101,4905.0
52.515104370,5051.0
52.531815639,4867.0
52.548526908,4795.0
52.565238177,4894.0
52.581949446,4903.0
52.598660715,5029.0
52.615371984,4871.0
52.632083253,4980.0
52.648794522,4843.0
52.665505791,4903.0
52.682217060,4843.0
52.698928329,4859.0
52.715639598,4674.0
52.732350867,4904.0
52.749062136,4806.0
52.765773405,4870.0
52.782484674,4749.0
52.799195943,4824.0
52.815907212,4769.0
52.832618480,4793.0
52.849329749,4895.0
52.866041018,4899.0
52.882752287,4837.0
52.899463556,4895.0
52.916174825,4872.0
52.932886094,4947.0
52.949597363,4804.0
52.966308632,4630.0
52.983019901,4842.0
52.999731170,4901.0
53.016442439,4861.0
53.033153708,4775.0
53.049864977,4796.0
53.066576246,4805.0
53.083287515,4666.0
53.099998784,4861.0
53.116710053,4742.0
53.133421322,4789.0
53.150132591,4762.0
53.166843860,4767.0
53.183555129,4727.0
53.200266398,4824.0
53.216977667,4830.0
53.233688936,4748.0
53.250400205,4773.0
53.267111474,4745.0
53.283822743,4825.0
53.300534012,4808.0
53.317245281,4785.0
53.333956550,4750.0
53.350667819,4834.0
53.367379088,4706.0
53.384090357,4764.0
53.400801626,4792.0
53.417512895,4827.0
53.434224164,4808.0
53.450935433,4743.0
53.467646702,4797.0
53.484357971,4850.0
53.501069240,4790.0
53.517780509,4790.0
53.534491778,4750.0
53.551203047,4886.0
53.567914316,4660.0
53.584625585,4664.0
53.601336854,4686.0
53.618048123,4722.0
53.634759391,4770.0
53.651470660,4789.0
53.668181929,4817.0
53.684893198,4782.0
53.701604467,4738.0
53.718315736,4677.0
53.735027005,4683.0
53.751738274,4598.0
53.768449543,4736.0
53.785160812,4708.0
53.801872081,4618.0
53.818583350,4782.0
53.835294619,4718.0
53.852005888,4647.0
53.868717157,4744.0
53.885428426,4807.0
53.902139695,4696.0
53.918850964,4707.0
53.935562233,4687.0
53.952273502,4680.0
53.968984771,4819.0
53.985696040,4872.0
54.002407309,4715.0
54.019118578,4739.0
54.035829847,4649.0
54.052541116,4843.0
54.069252385,4793.0
54.085963654,4710.0
54.102674923,4814.0
54.119386192,4884.0
54.136097461,4774.0
54.152808730,4766.0
54.169519999,4803.0
54.186231268,4719.0
54.202942537,4617.0
54.219653806,4737.0
54.236365075,4719.0
54.253076344,4668.0
54.269787613,4843.0
54.286498882,4861.0
54.303210151,5000.0
54.319921420,4799.0
54.336632689,4902.0
54.353343958,4927.0
54.370055227,4775.0
54.386766496,4821.0
54.403477765,4806.0
54.420189034,4745.0
54.436900303,4690.0
54.453611571,4828.0
54.470322840,4801.0
54.487034109,4928.0
54.503745378,4772.0
54.520456647,4976.0
54.537167916,5055.0
54.553879185,5035.0
54.570590454,5257.0
54.587301723,5098.0
54.604012992,5046.0
54.620724261,5005.0
54.637435530,4864.0
54.654146799,5043.0
54.670858068,5003.0
54.687569337,4919.0
54.704280606,4957.0
54.720991875,4902.0
54.737703144,4838.0
54.754414413,4901.0
54.771125682,4885.0
54.787836951,4865.0
54.804548220,4767.0
54.821259489,4768.0
54.837970758,4661.0
54.854682027,4678.0
54.871393296,4628.0
54.888104565,4713.0
54.904815834,4611.0
54.921527103,4598.0
54.938238372,4815.0
54.954949641,4609.0
54.971660910,4847.0
54.988372179,4792.0
55.005083448,4694.0
55.021794717,4619.0
55.038505986,4691.0
55.055217255,4676.0
55.071928524,4649.0
55.088639793,4659.0
55.105351062,4617.0
55.122062331,4685.0
55.138773600,4680.0
55.155484869,4613.0
55.172196138,4634.0
55.188907407,4649.0
55.205618676,4616.0
55.222329945,4615.0
55.239041214,4693.0
55.255752482,4695.0
55.272463751,4555.0
55.289175020,4565.0
55.305886289,4708.0
55.322597558,4770.0
55.339308827,4541.0
55.356020096,4633.0
55.372731365,4539.0
55.389442634,4571.0
55.406153903,4680.0
55.422865172,4680.0
55.439576441,4633.0
55.456287710,4606.0
55.472998979,4646.0
55.489710248,4578.0
55.506421517,4541.0
55.523132786,4722.0
55.539844055,4598.0
55.556555324,4455.0
55.573266593,4532.0
55.589977862,4619.0
55.606689131,4572.0
55.623400400,4604.0
55.640111669,4534.0
55.656822938,4540.0
55.673534207,4625.0
55.690245476,4527.0
55.706956745,4587.0
55.723668014,4615.0
55.740379283,4665.0
55.757090552,4620.0
55.773801821,4607.0
55.790513090,4667.0
55.807224359,4623.0
55.823935628,4657.0
55.840646897,4516.0
55.857358166,4661.0
55.874069435,4591.0
55.890780704,4646.0
55.907491973,4541.0
55.924203242,4541.0
55.940914511,4588.0
55.957625780,4623.0
55.974337049,4482.0
55.991048318,4522.0
56.007759587,4720.0
56.024470856,4567.0
56.041182125,4573.0
56.057893393,4582.0
56.074604662,4597.0
56.091315931,4704.0
56.108027200,4567.0
56.124738469,4654.0
56.141449738,4618.0
56.158161007,4595.0
56.174872276,4438.0
56.191583545,4547.0
56.208294814,4584.0
56.225006083,4516.0
56.241717352,4557.0
56.258428621,4455.0
56.275139890,4541.0
56.291851159,4497.0
56.308562428,4612.0
56.325273697,4600.0
56.341984966,4583.0
56.358696235,4574.0
56.375407504,4562.0
56.392118773,4576.0
56.408830042,4598.0
56.425541311,4536.0
56.442252580,4503.0
56.458963849,4505.0
56.475675118,4650.0
56.492386387,4534.0
56.509097656,4636.0
56.525808925,4445.0
56.542520194,4527.0
56.559231463,4544.0
56.575942732,4587.0
56.592654001,4421.0
56.609365270,4503.0
56.626076539,4523.0
56.642787808,4432.0
56.659499077,4467.0
56.676210346,4513.0
56.692921615,4511.0
56.709632884,4481.0
56.726344153,4646.0
56.743055422,4320.0
56.759766691,4586.0
56.776477960,4560.0
56.793189229,4663.0
56.809900498,4652.0
56.826611767,4572.0
56.843323036,4487.0
56.860034304,4374.0
56.876745573,4581.0
56.893456842,4436.0
56.910168111,4642.0
56.926879380,4517.0
56.943590649,4504.0
56.960301918,4555.0
56.977013187,4480.0
56.993724456,4484.0
57.010435725,4538.0
57.027146994,4585.0
57.043858263,4596.0
57.060569532,4543.0
57.077280801,4407.0
57.093992070,4609.0
57.110703339,4438.0
57.127414608,4533.0
57.144125877,4482.0
57.160837146,4431.0
57.177548415,4503.0
57.194259684,4593.0
57.210970953,4557.0
57.227682222,4508.0
57.244393491,4406.0
57.261104760,4422.0
57.277816029,4529.0
57.294527298,4466.0
57.311238567,4600.0
57.327949836,4577.0
57.344661105,4589.0
57.361372374,4512.0
57.378083643,4582.0
57.394794912,4539.0
57.411506181,4509.0
57.428217450,4474.0
57.444928719,4509.0
57.461639988,4503.0
57.478351257,4618.0
57.495062526,4579.0
57.511773795,4502.0
57.528485064,4604.0
57.545196333,4557.0
57.561907602,4476.0
57.578618871,4626.0
57.595330140,4500.0
57.612041409,4496.0
57.628752678,4529.0
57.645463947,4518.0
57.662175216,4492.0
57.678886484,4512.0
57.695597753,4498.0
57.712309022,4512.0
57.729020291,4565.0
57.745731560,4465.0
57.762442829,4501.0
57.779154098,4470.0
57.795865367,4443.0
57.812576636,4511.0
57.829287905,4482.0
57.845999174,4518.0
57.862710443,4568.0
57.879421712,4494.0
57.896132981,4425.0
57.912844250,4502.0
57.929555519,4516.0
57.946266788,4586.0
57.962978057,4476.0
57.979689326,4550.0
57.996400595,4419.0
58.013111864,4497.0
58.029823133,4542.0
58.046534402,4446.0
58.063245671,4466.0
58.079956940,4513.0
58.096668209,4562.0
58.113379478,4578.0
58.130090747,4473.0
58.146802016,4378.0
58.163513285,4538.0
58.180224554,4521.0
58.196935823,4537.0
58.213647092,4511.0
58.230358361,4462.0
58.247069630,4443.0
58.263780899,4553.0
58.280492168,4484.0
58.297203437,4495.0
58.313914706,4399.0
58.330625975,4487.0
58.347337244,4419.0
58.364048513,4509.0
58.380759782,4451.0
58.397471051,4443.0
58.414182320,4518.0
58.430893589,4589.0
58.447604858,4416.0
58.464316127,4590.0
58.481027395,4488.0
58.497738664,4463.0
58.514449933,4433.0
58.531161202,4388.0
58.547872471,4622.0
58.564583740,4453.0
58.581295009,4518.0
58.598006278,4422.0
58.614717547,4524.0
58.631428816,4358.0
58.648140085,4565.0
58.664851354,4498.0
58.681562623,4435.0
58.698273892,4450.0
58.714985161,4524.0
58.731696430,4536.0
58.748407699,4394.0
58.765118968,4527.0
58.781830237,4450.0
58.798541506,4655.0
58.815252775,4629.0
58.831964044,4519.0
58.848675313,4419.0
58.865386582,4482.0
58.882097851,4438.0
58.898809120,4538.0
58.915520389,4378.0
58.932231658,4551.0
58.948942927,4491.0
58.965654196,4387.0
58.982365465,4560.0
58.999076734,4435.0
59.015788003,4379.0
59.032499272,4493.0
59.049210541,4477.0
59.065921810,4540.0
59.082633079,4362.0
59.099344348,4539.0
59.116055617,4449.0
59.132766886,4627.0
59.149478155,4402.0
59.166189424,4449.0
59.182900693,4347.0
59.199611962,4589.0
59.216323231,4444.0
59.233034500,4409.0
59.249745769,4433.0
59.266457038,4456.0
59.283168306,4503.0
59.299879575,4401.0
59.316590844,4355.0
59.333302113,4480.0
59.350013382,4625.0
59.366724651,4335.0
59.383435920,4352.0
59.400147189,4478.0
59.416858458,4359.0
59.433569727,4439.0
59.450280996,4450.0
59.466992265,4538.0
59.483703534,4415.0
59.500414803,4418.0
59.517126072,4398.0
59.533837341,4479.0
59.550548610,4520.0
59.567259879,4348.0
59.583971148,4406.0
59.600682417,4509.0
59.617393686,4450.0
59.634104955,4449.0
59.650816224,4470.0
59.667527493,4412.0
59.684238762,4363.0
59.700950031,4483.0
59.717661300,4387.0
59.734372569,4415.0
59.751083838,4482.0
59.767795107,4447.0
59.784506376,4324.0
59.801217645,4526.0
59.817928914,4434.0
59.834640183,4548.0
59.851351452,4540.0
59.868062721,4331.0
59.884773990,4426.0
59.901485259,4496.0
59.918196528,4506.0
59.934907797,4565.0
59.951619066,4562.0
59.968330335,4384.0
59.985041604,4444.0
60.001752873,4463.0
60.018464142,4582.0
60.035175411,4415.0
60.051886680,4426.0
60.068597949,4434.0
60.085309217,4449.0
60.102020486,4463.0
60.118731755,4482.0
60.135443024,4538.0
60.152154293,4450.0
60.168865562,4440.0
60.185576831,4492.0
60.202288100,4449.0
60.218999369,4434.0
60.235710638,4520.0
60.252421907,4633.0
60.269133176,4617.0
60.285844445,4443.0
60.302555714,4547.0
60.319266983,4450.0
60.335978252,4552.0
60.352689521,4467.0
60.369400790,4395.0
60.386112059,4448.0
60.402823328,4414.0
60.419534597,4398.0
60.436245866,4417.0
60.452957135,4557.0
60.469668404,4499.0
60.486379673,4480.0
60.503090942,4347.0
60.519802211,4365.0
60.536513480,4481.0
60.553224749,4443.0
60.569936018,4555.0
60.586647287,4376.0
60.603358556,4419.0
60.620069825,4418.0
60.636781094,4445.0
60.653492363,4466.0
60.670203632,4479.0
60.686914901,4486.0
60.703626170,4430.0
60.720337439,4463.0
60.737048708,4395.0
60.753759977,4388.0
60.770471246,4501.0
60.787182515,4415.0
60.803893784,4440.0
60.820605053,4483.0
60.837316322,4445.0
60.854027591,4550.0
60.870738860,4430.0
60.887450129,4498.0
60.904161397,4366.0
60.920872666,4387.0
60.937583935,4302.0
60.954295204,4503.0
60.971006473,4435.0
60.987717742,4450.0
61.004429011,4314.0
61.021140280,4478.0
61.037851549,4500.0
61.054562818,4383.0
61.071274087,4400.0
61.087985356,4629.0
61.104696625,4521.0
61.121407894,4478.0
61.138119163,4298.0
61.154830432,4503.0
61.171541701,4399.0
61.188252970,4473.0
61.204964239,4478.0
61.221675508,4345.0
61.238386777,4553.0
61.255098046,4421.0
61.271809315,4447.0
61.288520584,4413.0
61.305231853,4373.0
61.321943122,4401.0
61.338654391,4496.0
61.355365660,4502.0
61.372076929,4431.0
61.388788198,4509.0
61.405499467,4537.0
61.422210736,4471.0
61.438922005,4451.0
61.455633274,4549.0
61.472344543,4429.0
61.489055812,4474.0
61.505767081,4598.0
61.522478350,4367.0
61.539189619,4328.0
61.555900888,4405.0
61.572612157,4425.0
61.589323426,4381.0
61.606034695,4526.0
61.622745964,4330.0
61.639457233,4365.0
61.656168502,4472.0
61.672879771,4370.0
61.689591040,4436.0
61.706302308,4431.0
61.723013577,4316.0
61.739724846,4283.0
61.756436115,4479.0
61.773147384,4424.0
61.789858653,4275.0
61.806569922,4459.0
61.823281191,4422.0
61.839992460,4410.0
61.856703729,4304.0
61.873414998,4395.0
61.890126267,4455.0
61.906837536,4408.0
61.923548805,4464.0
61.940260074,4507.0
61.956971343,4571.0
61.973682612,4436.0
61.990393881,4452.0
62.007105150,4599.0
62.023816419,4417.0
62.040527688,4460.0
62.057238957,4362.0
62.073950226,4447.0
62.090661495,4439.0
62.107372764,4330.0
62.124084033,4377.0
62.140795302,4370.0
62.157506571,4508.0
62.174217840,4375.0
62.190929109,4429.0
62.207640378,4409.0
62.224351647,4459.0
62.241062916,4520.0
62.257774185,4439.0
62.274485454,4389.0
62.291196723,4427.0
62.307907992,4355.0
62.324619261,4433.0
62.341330530,4489.0
62.358041799,4352.0
62.374753068,4401.0
62.391464337,4307.0
62.408175606,4526.0
62.424886875,4417.0
62.441598144,4485.0
62.458309413,4276.0
62.475020682,4320.0
62.491731951,4388.0
62.508443219,4381.0
62.525154488,4318.0
62.541865757,4445.0
62.558577026,4361.0
62.575288295,4521.0
62.591999564,4375.0
62.608710833,4444.0
62.625422102,4468.0
62.642133371,4395.0
62.658844640,4426.0
62.675555909,4361.0
62.692267178,4448.0
62.708978447,4476.0
62.725689716,4444.0
62.742400985,4406.0
62.759112254,4412.0
62.775823523,4312.0
62.792534792,4426.0
62.809246061,4492.0
62.825957330,4511.0
62.842668599,4481.0
62.859379868,4356.0
62.876091137,4417.0
62.892802406,4516.0
62.909513675,4431.0
62.926224944,4361.0
62.942936213,4492.0
62.959647482,4305.0
62.976358751,4603.0
62.993070020,4432.0
63.009781289,4476.0
63.026492558,4392.0
63.043203827,4373.0
63.059915096,4593.0
63.076626365,4340.0
63.093337634,4382.0
63.110048903,4384.0
63.126760172,4440.0
63.143471441,4453.0
63.160182710,4436.0
63.176893979,4355.0
63.193605248,4312.0
63.210316517,4310.0
63.227027786,4357.0
63.243739055,4367.0
63.260450324,4456.0
63.277161593,4440.0
63.293872862,4341.0
63.310584130,4384.0
63.327295399,4353.0
63.344006668,4316.0
63.360717937,4414.0
63.377429206,4336.0
63.394140475,4370.0
63.410851744,4342.0
63.427563013,4266.0
63.444274282,4354.0
63.460985551,4401.0
63.477696820,4460.0
63.494408089,4486.0
63.511119358,4445.0
63.527830627,4374.0
63.544541896,4433.0
63.561253165,4454.0
63.577964434,4335.0
63.594675703,4336.0
63.611386972,4534.0
63.628098241,4628.0
63.644809510,4512.0
63.661520779,4364.0
63.678232048,4448.0
63.694943317,4327.0
63.711654586,4386.0
63.728365855,4380.0
63.745077124,4366.0
63.761788393,4458.0
63.778499662,4391.0
63.795210931,4595.0
63.811922200,4345.0
63.828633469,4467.0
63.845344738,4379.0
63.862056007,4290.0
63.878767276,4375.0
63.895478545,4324.0
63.912189814,4294.0
63.928901083,4409.0
63.945612352,4408.0
63.962323621,4476.0
63.979034890,4448.0
63.995746159,4486.0
64.012457428,4376.0
64.029168697,4359.0
64.045879966,4389.0
64.062591235,4483.0
64.079302504,4473.0
64.096013773,4362.0
64.112725041,4445.0
64.129436310,4545.0
64.146147579,4424.0
64.162858848,4410.0
64.179570117,4285.0
64.196281386,4285.0
64.212992655,4352.0
64.229703924,4329.0
64.246415193,4472.0
64.263126462,4521.0
64.279837731,4465.0
64.296549000,4398.0
64.313260269,4416.0
64.329971538,4349.0
64.346682807,4432.0
64.363394076,4393.0
64.380105345,4506.0
64.396816614,4440.0
64.413527883,4483.0
64.430239152,4444.0
64.446950421,4304.0
64.463661690,4362.0
64.480372959,4547.0
64.497084228,4202.0
64.513795497,4466.0
64.530506766,4539.0
64.547218035,4477.0
64.563929304,4393.0
64.580640573,4486.0
64.597351842,4443.0
64.614063111,4491.0
64.630774380,4355.0
64.647485649,4499.0
64.664196918,4193.0
64.680908187,4446.0
64.697619456,4418.0
64.714330725,4438.0
64.731041994,4366.0
64.747753263,4370.0
64.764464532,4440.0
64.781175801,4418.0
64.797887070,4444.0
64.814598339,4452.0
64.831309608,4248.0
64.848020877,4374.0
64.864732146,4342.0
64.881443415,4427.0
64.898154684,4524.0
64.914865953,4437.0
64.931577221,4536.0
64.948288490,4558.0
64.964999759,4551.0
64.981711028,4362.0
64.998422297,4293.0
65.015133566,4402.0
65.031844835,4439.0
65.048556104,4317.0
65.065267373,4378.0
65.081978642,4371.0
65.098689911,4404.0
65.115401180,4521.0
65.132112449,4575.0
65.148823718,4458.0
65.165534987,4383.0
65.182246256,4419.0
65.198957525,4354.0
65.215668794,4440.0
65.232380063,4451.0
65.249091332,4131.0
65.265802601,4428.0
65.282513870,4311.0
65.299225139,4305.0
65.315936408,4484.0
65.332647677,4308.0
65.349358946,4418.0
65.366070215,4496.0
65.382781484,4448.0
65.399492753,4448.0
65.416204022,4398.0
65.432915291,4450.0
65.449626560,4371.0
65.466337829,4392.0
65.483049098,4378.0
65.499760367,4338.0
65.516471636,4418.0
65.533182905,4405.0
65.549894174,4420.0
65.566605443,4527.0
65.583316712,4420.0
65.600027981,4407.0
65.616739250,4457.0
65.633450519,4466.0
65.650161788,4387.0
65.666873057,4475.0
65.683584326,4518.0
65.700295595,4510.0
65.717006864,4636.0
65.733718132,4457.0
65.750429401,4554.0
65.767140670,4395.0
65.783851939,4492.0
65.800563208,4524.0
65.817274477,4340.0
65.833985746,4317.0
65.850697015,4395.0
65.867408284,4508.0
65.884119553,4363.0
65.900830822,4493.0
65.917542091,4315.0
65.934253360,4478.0
65.950964629,4417.0
65.967675898,4513.0
65.984387167,4423.0
66.001098436,4323.0
66.017809705,4465.0
66.034520974,4325.0
66.051232243,4375.0
66.067943512,4512.0
66.084654781,4412.0
66.101366050,4326.0
66.118077319,4386.0
66.134788588,4526.0
66.151499857,4404.0
66.168211126,4384.0
66.184922395,4283.0
66.201633664,4354.0
66.218344933,4440.0
66.235056202,4491.0
66.251767471,4468.0
66.268478740,4392.0
66.285190009,4375.0
66.301901278,4339.0
66.318612547,4257.0
66.335323816,4476.0
66.352035085,4424.0
66.368746354,4403.0
66.385457623,4400.0
66.402168892,4363.0
66.418880161,4373.0
66.435591430,4353.0
66.452302699,4329.0
66.469013968,4266.0
66.485725237,4402.0
66.502436506,4270.0
66.519147775,4337.0
66.535859043,4335.0
66.552570312,4411.0
66.569281581,4353.0
66.585992850,4417.0
66.602704119,4598.0
66.619415388,4240.0
66.636126657,4459.0
66.652837926,4512.0
66.669549195,4449.0
66.686260464,4538.0
66.702971733,4454.0
66.719683002,4374.0
66.736394271,4443.0
66.753105540,4428.0
66.769816809,4380.0
66.786528078,4373.0
66.803239347,4308.0
66.819950616,4471.0
66.836661885,4398.0
66.853373154,4386.0
66.870084423,4366.0
66.886795692,4312.0
66.903506961,4398.0
66.920218230,4472.0
66.936929499,4222.0
66.953640768,4316.0
66.970352037,4393.0
66.987063306,4447.0
67.003774575,4417.0
67.020485844,4448.0
67.037197113,4440.0
67.053908382,4414.0
67.070619651,4493.0
67.087330920,4405.0
67.104042189,4402.0
67.120753458,4470.0
67.137464727,4386.0
67.154175996,4394.0
67.170887265,4396.0
67.187598534,4423.0
67.204309803,4422.0
67.221021072,4438.0
67.237732341,4484.0
67.254443610,4561.0
67.271154879,4261.0
67.287866148,4483.0
67.304577417,4492.0
67.321288686,4350.0
67.337999954,4560.0
67.354711223,4422.0
67.371422492,4394.0
67.388133761,4465.0
67.404845030,4342.0
67.421556299,4373.0
67.438267568,4454.0
67.454978837,4412.0
67.471690106,4405.0
67.488401375,4291.0
67.505112644,4295.0
67.521823913,4362.0
67.538535182,4464.0
67.555246451,4412.0
67.571957720,4418.0
67.588668989,4374.0
67.605380258,4481.0
67.622091527,4320.0
67.638802796,4364.0
67.655514065,4442.0
67.672225334,4326.0
67.688936603,4439.0
67.705647872,4435.0
67.722359141,4302.0
67.739070410,4350.0
67.755781679,4420.0
67.772492948,4409.0
67.789204217,4419.0
67.805915486,4481.0
67.822626755,4567.0
67.839338024,4557.0
67.856049293,4667.0
67.872760562,4568.0
67.889471831,4620.0
67.906183100,4725.0
67.922894369,4781.0
67.939605638,4798.0
67.956316907,4714.0
67.973028176,4570.0
67.989739445,4428.0
68.006450714,4494.0
68.023161983,4427.0
68.039873252,4514.0
68.056584521,4505.0
68.073295790,4518.0
68.090007059,4551.0
68.106718328,4531.0
68.123429597,4616.0
68.140140866,4567.0
68.156852134,4491.0
68.173563403,4396.0
68.190274672,4374.0
68.206985941,4413.0
68.223697210,4373.0
68.240408479,4350.0
68.257119748,4456.0
68.273831017,4345.0
68.290542286,4549.0
68.307253555,4395.0
68.323964824,4357.0
68.340676093,4491.0
68.357387362,4322.0
68.374098631,4598.0
68.390809900,4452.0
68.407521169,4217.0
68.424232438,4470.0
68.440943707,4411.0
68.457654976,4401.0
68.474366245,4387.0
68.491077514,4419.0
68.507788783,4344.0
68.524500052,4508.0
68.541211321,4500.0
68.557922590,4342.0
68.574633859,4319.0
68.591345128,4352.0
68.608056397,4398.0
68.624767666,4329.0
68.641478935,4386.0
68.658190204,4482.0
68.674901473,4365.0
68.691612742,4437.0
68.708324011,4365.0
68.725035280,4389.0
68.741746549,4434.0
68.758457818,4399.0
68.775169087,4282.0
68.791880356,4583.0
68.808591625,4462.0
68.825302894,4404.0
68.842014163,4526.0
68.858725432,4408.0
68.875436701,4365.0
68.892147970,4374.0
68.908859239,4448.0
68.925570508,4500.0
68.942281777,4441.0
68.958993045,4414.0
68.975704314,4462.0
68.992415583,4390.0
69.009126852,4439.0
69.025838121,4388.0
69.042549390,4374.0
69.059260659,4420.0
69.075971928,4373.0
69.092683197,4540.0
69.109394466,4444.0
69.126105735,4295.0
69.142817004,4466.0
69.159528273,4308.0
69.176239542,4413.0
69.192950811,4320.0
69.209662080,4394.0
69.226373349,4349.0
69.243084618,4479.0
69.259795887,4411.0
69.276507156,4358.0
69.293218425,4567.0
69.309929694,4414.0
69.326640963,4252.0
69.343352232,4396.0
69.360063501,4395.0
69.376774770,4435.0
69.393486039,4259.0
69.410197308,4387.0
69.426908577,4337.0
69.443619846,4391.0
69.460331115,4425.0
69.477042384,4480.0
69.493753653,4374.0
69.510464922,4514.0
69.527176191,4437.0
69.543887460,4345.0
69.560598729,4480.0
69.577309998,4384.0
69.594021267,4460.0
69.610732536,4378.0
69.627443805,4386.0
69.644155074,4464.0
69.660866343,4489.0
69.677577612,4385.0
69.694288881,4442.0
69.711000150,4355.0
69.727711419,4283.0
69.744422688,4405.0
69.761133956,4354.0
69.777845225,4397.0
69.794556494,4316.0
69.811267763,4478.0
69.827979032,4531.0
69.844690301,4397.0
69.861401570,4291.0
69.878112839,4580.0
69.894824108,4398.0
69.911535377,4346.0
69.928246646,4335.0
69.944957915,4469.0
69.961669184,4399.0
69.978380453,4356.0
69.995091722,4367.0
70.011802991,4488.0
70.028514260,4436.0
70.045225529,4469.0
70.061936798,4451.0
70.078648067,4340.0
70.095359336,4364.0
70.112070605,4308.0
70.128781874,4418.0
70.145493143,4471.0
70.162204412,4330.0
70.178915681,4432.0
70.195626950,4575.0
70.212338219,4410.0
70.229049488,4314.0
70.245760757,4424.0
70.262472026,4400.0
70.279183295,4441.0
70.295894564,4360.0
70.312605833,4368.0
70.329317102,4609.0
70.346028371,4292.0
70.362739640,4365.0
70.379450909,4480.0
70.396162178,4309.0
70.412873447,4426.0
70.429584716,4456.0
70.446295985,4307.0
70.463007254,4310.0
70.479718523,4348.0
70.496429792,4450.0
70.513141061,4452.0
70.529852330,4451.0
70.546563599,4456.0
70.563274867,4489.0
70.579986136,4543.0
70.596697405,4444.0
70.613408674,4399.0
70.630119943,4480.0
70.646831212,4559.0
70.663542481,4294.0
70.680253750,4492.0
70.696965019,4559.0
70.713676288,4443.0
70.730387557,4365.0
70.747098826,4494.0
70.763810095,4478.0
70.780521364,4575.0
70.797232633,4474.0
70.813943902,4394.0
70.830655171,4601.0
70.847366440,4456.0
70.864077709,4438.0
70.880788978,4433.0
70.897500247,4533.0
70.914211516,4625.0
70.930922785,4527.0
70.947634054,4525.0
70.964345323,4368.0
70.981056592,4649.0
70.997767861,4524.0
71.014479130,4434.0
71.031190399,4499.0
71.047901668,4557.0
71.064612937,4515.0
71.081324206,4537.0
71.098035475,4445.0
71.114746744,4576.0
71.131458013,4464.0
71.148169282,4523.0
71.164880551,4568.0
71.181591820,4511.0
71.198303089,4472.0
71.215014358,4482.0
71.231725627,4459.0
71.248436896,4523.0
71.265148165,4533.0
71.281859434,4519.0
71.298570703,4581.0
71.315281972,4563.0
71.331993241,4425.0
71.348704510,4502.0
71.365415779,4525.0
71.382127047,4509.0
71.398838316,4582.0
71.415549585,4586.0
71.432260854,4379.0
71.448972123,4656.0
71.465683392,4434.0
71.482394661,4495.0
71.499105930,4435.0
71.515817199,4519.0
71.532528468,4656.0
71.549239737,4538.0
71.565951006,4399.0
71.582662275,4369.0
71.599373544,4405.0
71.616084813,4419.0
71.632796082,4521.0
71.649507351,4458.0
71.666218620,4515.0
71.682929889,4614.0
71.699641158,4555.0
71.716352427,4500.0
71.733063696,4463.0
71.749774965,4515.0
71.766486234,4380.0
71.783197503,4558.0
71.799908772,4533.0
71.816620041,4502.0
71.833331310,4483.0
71.850042579,4564.0
71.866753848,4645.0
71.883465117,4548.0
71.900176386,4548.0
71.916887655,4482.0
71.933598924,4497.0
71.950310193,4569.0
71.967021462,4415.0
71.983732731,4481.0
72.000444000,4553.0
72.017155269,4501.0
72.033866538,4490.0
72.050577807,4479.0
72.067289076,4519.0
72.084000345,4468.0
72.100711614,4550.0
72.117422883,4482.0
72.134134152,4478.0
72.150845421,4573.0
72.167556690,4468.0
72.184267958,4440.0
72.200979227,4463.0
72.217690496,4628.0
72.234401765,4464.0
72.251113034,4519.0
72.267824303,4632.0
72.284535572,4573.0
72.301246841,4565.0
72.317958110,4477.0
72.334669379,4494.0
72.351380648,4457.0
72.368091917,4611.0
72.384803186,4633.0
72.401514455,4634.0
72.418225724,4541.0
72.434936993,4561.0
72.451648262,4495.0
72.468359531,4622.0
72.485070800,4491.0
72.501782069,4542.0
72.518493338,4599.0
72.535204607,4561.0
72.551915876,4551.0
72.568627145,4586.0
72.585338414,4496.0
72.602049683,4500.0
72.618760952,4624.0
72.635472221,4560.0
72.652183490,4589.0
72.668894759,4568.0
72.685606028,4552.0
72.702317297,4508.0
72.719028566,4725.0
72.735739835,4526.0
72.752451104,4574.0
72.769162373,4594.0
72.785873642,4526.0
72.802584911,4610.0
72.819296180,4622.0
72.836007449,4612.0
72.852718718,4641.0
72.869429987,4532.0
72.886141256,4559.0
72.902852525,4522.0
72.919563794,4529.0
72.936275063,4555.0
72.952986332,4617.0
72.969697601,4554.0
72.986408869,4682.0
73.003120138,4699.0
73.019831407,4590.0
73.036542676,4662.0
73.053253945,4726.0
73.069965214,4538.0
73.086676483,4556.0
73.103387752,4689.0
73.120099021,4704.0
73.136810290,4727.0
73.153521559,4731.0
73.170232828,4738.0
73.186944097,4506.0
73.203655366,4658.0
73.220366635,4656.0
73.237077904,4795.0
73.253789173,4677.0
73.270500442,4753.0
73.287211711,4836.0
73.303922980,4704.0
73.320634249,4873.0
73.337345518,4837.0
73.354056787,4878.0
73.370768056,5038.0
73.387479325,5227.0
73.404190594,5230.0
73.420901863,5423.0
73.437613132,5530.0
73.454324401,5542.0
73.471035670,5512.0
73.487746939,5631.0
73.504458208,5688.0
73.521169477,5893.0
73.537880746,5879.0
73.554592015,6103.0
73.571303284,6215.0
73.588014553,6097.0
73.604725822,6360.0
73.621437091,6642.0
73.638148360,7027.0
73.654859629,7415.0
73.671570898,8229.0
73.688282167,9424.0
73.704993436,11242.0
73.721704705,14314.0
73.738415974,19447.0
73.755127243,28169.0
73.771838512,41533.0
73.788549780,57784.0
73.805261049,65884.0
73.821972318,58886.0
73.838683587,42669.0
73.855394856,29217.0
73.872106125,20080.0
73.888817394,15174.0
73.905528663,12940.0
73.922239932,12083.0
73.938951201,12826.0
73.955662470,14683.0
73.972373739,19143.0
73.989085008,25606.0
74.005796277,32226.0
74.022507546,34724.0
74.039218815,30673.0
74.055930084,23103.0
74.072641353,16812.0
74.089352622,12147.0
74.106063891,9582.0
74.122775160,8063.0
74.139486429,7255.0
74.156197698,6742.0
74.172908967,6325.0
74.189620236,6016.0
74.206331505,5860.0
74.223042774,5679.0
74.239754043,5365.0
74.256465312,5334.0
74.273176581,5300.0
74.289887850,5178.0
74.306599119,5116.0
74.323310388,4990.0
74.340021657,4938.0
74.356732926,4870.0
74.373444195,4913.0
74.390155464,4875.0
74.406866733,4963.0
74.423578002,4905.0
74.440289271,4764.0
74.457000540,4787.0
74.473711809,4824.0
74.490423078,4719.0
74.507134347,4727.0
74.523845616,4783.0
74.540556885,4785.0
74.557268154,4656.0
74.573979423,4665.0
74.590690692,4605.0
74.607401960,4551.0
74.624113229,4622.0
74.640824498,4537.0
74.657535767,4649.0
74.674247036,4688.0
74.690958305,4715.0
74.707669574,4620.0
74.724380843,4531.0
74.741092112,4597.0
74.757803381,4639.0
74.774514650,4679.0
74.791225919,4633.0
74.807937188,4572.0
74.824648457,4505.0
74.841359726,4604.0
74.858070995,4647.0
74.874782264,4581.0
74.891493533,4612.0
74.908204802,4532.0
74.924916071,4545.0
74.941627340,4507.0
74.958338609,4616.0
74.975049878,4531.0
74.991761147,4489.0
75.008472416,4540.0
75.025183685,4669.0
75.041894954,4574.0
75.058606223,4537.0
75.075317492,4483.0
75.092028761,4581.0
75.108740030,4577.0
75.125451299,4544.0
75.142162568,4656.0
75.158873837,4552.0
75.175585106,4517.0
75.192296375,4528.0
75.209007644,4438.0
75.225718913,4459.0
75.242430182,4646.0
75.259141451,4554.0
75.275852720,4530.0
75.292563989,4486.0
75.309275258,4616.0
75.325986527,4536.0
75.342697796,4570.0
75.359409065,4508.0
75.376120334,4415.0
75.392831603,4615.0
75.409542871,4434.0
75.426254140,4593.0
75.442965409,4550.0
75.459676678,4510.0
75.476387947,4447.0
75.493099216,4488.0
75.509810485,4586.0
75.526521754,4560.0
75.543233023,4517.0
75.559944292,4586.0
75.576655561,4302.0
75.593366830,4492.0
75.610078099,4491.0
75.626789368,4520.0
75.643500637,4529.0
75.660211906,4581.0
75.676923175,4517.0
75.693634444,4478.0
75.710345713,4455.0
75.727056982,4580.0
75.743768251,4575.0
75.760479520,4503.0
75.777190789,4476.0
75.793902058,4495.0
75.810613327,4409.0
75.827324596,4495.0
75.844035865,4549.0
75.860747134,4309.0
75.877458403,4435.0
75.894169672,4442.0
75.910880941,4375.0
75.927592210,4316.0
75.944303479,4483.0
75.961014748,4490.0
75.977726017,4389.0
75.994437286,4455.0
76.011148555,4517.0
76.027859824,4546.0
76.044571093,4366.0
76.061282362,4542.0
76.077993631,4500.0
76.094704900,4427.0
76.111416169,4511.0
76.128127438,4450.0
76.144838707,4369.0
76.161549976,4511.0
76.178261245,4609.0
76.194972514,4439.0
76.211683782,4505.0
76.228395051,4506.0
76.245106320,4431.0
76.261817589,4528.0
76.278528858,4553.0
76.295240127,4444.0
76.311951396,4433.0
76.328662665,4432.0
76.345373934,4421.0
76.362085203,4440.0
76.378796472,4431.0
76.395507741,4400.0
76.412219010,4492.0
76.428930279,4625.0
76.445641548,4527.0
76.462352817,4450.0
76.479064086,4433.0
76.495775355,4426.0
76.512486624,4403.0
76.529197893,4453.0
76.545909162,4462.0
76.562620431,4349.0
76.579331700,4465.0
76.596042969,4438.0
76.612754238,4424.0
76.629465507,4454.0
76.646176776,4534.0
76.662888045,4428.0
76.679599314,4529.0
76.696310583,4405.0
76.713021852,4552.0
76.729733121,4513.0
76.746444390,4310.0
76.763155659,4472.0
76.779866928,4530.0
76.796578197,4495.0
76.813289466,4457.0
76.830000735,4471.0
76.846712004,4547.0
76.863423273,4265.0
76.880134542,4483.0
76.896845811,4351.0
76.913557080,4592.0
76.930268349,4432.0
76.946979618,4547.0
76.963690887,4560.0
76.980402156,4502.0
76.997113425,4343.0
77.013824693,4476.0
77.030535962,4494.0
77.047247231,4361.0
77.063958500,4359.0
77.080669769,4455.0
77.097381038,4349.0
77.114092307,4348.0
77.130803576,4375.0
77.147514845,4504.0
77.164226114,4552.0
77.180937383,4401.0
77.197648652,4375.0
77.214359921,4453.0
77.231071190,4640.0
77.247782459,4494.0
77.264493728,4397.0
77.281204997,4401.0
77.297916266,4380.0
77.314627535,4662.0
77.331338804,4454.0
77.348050073,4433.0
77.364761342,4381.0
77.381472611,4433.0
77.398183880,4483.0
77.414895149,4470.0
77.431606418,4362.0
77.448317687,4534.0
77.465028956,4548.0
77.481740225,4367.0
77.498451494,4513.0
77.515162763,4406.0
77.531874032,4470.0
77.548585301,4573.0
77.565296570,4492.0
77.582007839,4407.0
77.598719108,4514.0
77.615430377,4437.0
77.632141646,4426.0
77.648852915,4436.0
77.665564184,4395.0
77.682275453,4353.0
77.698986722,4385.0
77.715697991,4479.0
77.732409260,4415.0
77.749120529,4471.0
77.765831798,4451.0
77.782543067,4588.0
77.799254336,4418.0
77.815965605,4524.0
77.832676873,4373.0
77.849388142,4498.0
77.866099411,4487.0
77.882810680,4374.0
77.899521949,4410.0
77.916233218,4449.0
77.932944487,4376.0
77.949655756,4363.0
77.966367025,4402.0
77.983078294,4398.0
77.999789563,4535.0
78.016500832,4382.0
78.033212101,4425.0
78.049923370,4446.0
78.066634639,4389.0
78.083345908,4462.0
78.100057177,4307.0
78.116768446,4438.0
78.133479715,4542.0
78.150190984,4444.0
78.166902253,4467.0
78.183613522,4430.0
78.200324791,4418.0
78.217036060,4445.0
78.233747329,4458.0
78.250458598,4405.0
78.267169867,4511.0
78.283881136,4471.0
78.300592405,4266.0
78.317303674,4350.0
78.334014943,4500.0
78.350726212,4501.0
78.367437481,4401.0
78.384148750,4303.0
78.400860019,4542.0
78.417571288,4315.0
78.434282557,4280.0
78.450993826,4513.0
78.467705095,4432.0
78.484416364,4445.0
78.501127633,4418.0
78.517838902,4517.0
78.534550171,4347.0
78.551261440,4470.0
78.567972709,4450.0
78.584683978,4387.0
78.601395247,4481.0
78.618106516,4397.0
78.634817784,4550.0
78.651529053,4441.0
78.668240322,4434.0
78.684951591,4497.0
78.701662860,4501.0
78.718374129,4422.0
78.735085398,4436.0
78.751796667,4374.0
78.768507936,4332.0
78.785219205,4474.0
78.801930474,4448.0
78.818641743,4520.0
78.835353012,4437.0
78.852064281,4464.0
78.868775550,4311.0
78.885486819,4457.0
78.902198088,4481.0
78.918909357,4427.0
78.935620626,4400.0
78.952331895,4531.0
78.969043164,4533.0
78.985754433,4510.0
79.002465702,4464.0
79.019176971,4517.0
79.035888240,4538.0
79.052599509,4569.0
79.069310778,4395.0
79.086022047,4448.0
79.102733316,4384.0
79.119444585,4481.0
79.136155854,4387.0
79.152867123,4408.0
79.169578392,4449.0
79.186289661,4467.0
79.203000930,4408.0
79.219712199,4458.0
79.236423468,4489.0
79.253134737,4447.0
79.269846006,4488.0
79.286557275,4417.0
79.303268544,4346.0
79.319979813,4491.0
79.336691082,4394.0
79.353402351,4474.0
79.370113620,4438.0
79.386824889,4556.0
79.403536158,4419.0
79.420247427,4407.0
79.436958695,4362.0
79.453669964,4379.0
79.470381233,4591.0
79.487092502,4338.0
79.503803771,4323.0
79.520515040,4588.0
79.537226309,4519.0
79.553937578,4327.0
79.570648847,4453.0
79.587360116,4418.0
79.604071385,4306.0
79.620782654,4537.0
79.637493923,4376.0
79.654205192,4397.0
79.670916461,4288.0
79.687627730,4486.0
79.704338999,4429.0
79.721050268,4407.0
79.737761537,4440.0
79.754472806,4447.0
79.771184075,4392.0
79.787895344,4354.0
79.804606613,4319.0
79.821317882,4563.0
79.838029151,4461.0
79.854740420,4471.0
79.871451689,4386.0
79.888162958,4416.0
79.904874227,4447.0
79.921585496,4350.0
79.938296765,4403.0
79.955008034,4406.0
79.971719303,4398.0
79.988430572,4349.0
80.005141841,4433.0
80.021853110,4397.0
80.038564379,4376.0
80.055275648,4378.0
80.071986917,4434.0
80.088698186,4413.0
80.105409455,4368.0
80.122120724,4500.0
80.138831993,4448.0
80.155543262,4546.0
80.172254531,4444.0
80.188965800,4562.0
80.205677069,4382.0
80.222388338,4296.0
80.239099606,4489.0
80.255810875,4399.0
80.272522144,4506.0
80.289233413,4507.0
80.305944682,4390.0
80.322655951,4349.0
80.339367220,4409.0
80.356078489,4291.0
80.372789758,4335.0
80.389501027,4467.0
80.406212296,4471.0
80.422923565,4393.0
80.439634834,4415.0
80.456346103,4384.0
80.473057372,4319.0
80.489768641,4438.0
80.506479910,4319.0
80.523191179,4412.0
80.539902448,4437.0
80.556613717,4442.0
80.573324986,4480.0
80.590036255,4444.0
80.606747524,4315.0
80.623458793,4389.0
80.640170062,4543.0
80.656881331,4280.0
80.673592600,4437.0
80.690303869,4382.0
80.707015138,4514.0
80.723726407,4397.0
80.740437676,4417.0
80.757148945,4465.0
80.773860214,4444.0
80.790571483,4517.0
80.807282752,4618.0
80.823994021,4483.0
80.840705290,4509.0
80.857416559,4481.0
80.874127828,4399.0
80.890839097,4363.0
80.907550366,4487.0
80.924261635,4431.0
80.940972904,4248.0
80.957684173,4458.0
80.974395442,4488.0
80.991106711,4455.0
81.007817980,4430.0
81.024529249,4334.0
81.041240518,4401.0
81.057951786,4499.0
81.074663055,4430.0
81.091374324,4484.0
81.108085593,4416.0
81.124796862,4498.0
81.141508131,4373.0
81.158219400,4461.0
81.174930669,4410.0
81.191641938,4355.0
81.208353207,4410.0
81.225064476,4420.0
81.241775745,4476.0
81.258487014,4449.0
81.275198283,4333.0
81.291909552,4362.0
81.308620821,4332.0
81.325332090,4373.0
81.342043359,4412.0
81.358754628,4475.0
81.375465897,4315.0
81.392177166,4471.0
81.408888435,4392.0
81.425599704,4460.0
81.442310973,4418.0
81.459022242,4408.0
81.475733511,4564.0
81.492444780,4378.0
81.509156049,4442.0
81.525867318,4444.0
81.542578587,4314.0
81.559289856,4329.0
81.576001125,4284.0
81.592712394,4366.0
81.609423663,4551.0
81.626134932,4225.0
81.642846201,4343.0
81.659557470,4451.0
81.676268739,4472.0
81.692980008,4282.0
81.709691277,4415.0
81.726402546,4331.0
81.743113815,4386.0
81.759825084,4393.0
81.776536353,4481.0
81.793247622,4370.0
81.809958891,4504.0
81.826670160,4351.0
81.843381429,4608.0
81.860092697,4524.0
81.876803966,4534.0
81.893515235,4622.0
81.910226504,4578.0
81.926937773,4698.0
81.943649042,4634.0
81.960360311,4506.0
81.977071580,4518.0
81.993782849,4472.0
82.010494118,4399.0
82.027205387,4361.0
82.043916656,4362.0
82.060627925,4417.0
82.077339194,4574.0
82.094050463,4463.0
82.110761732,4390.0
82.127473001,4489.0
82.144184270,4490.0
82.160895539,4517.0
82.177606808,4456.0
82.194318077,4480.0
82.211029346,4411.0
82.227740615,4306.0
82.244451884,4376.0
82.261163153,4426.0
82.277874422,4421.0
82.294585691,4411.0
82.311296960,4442.0
82.328008229,4468.0
82.344719498,4357.0
82.361430767,4329.0
82.378142036,4432.0
82.394853305,4397.0
82.411564574,4478.0
82.428275843,4318.0
82.444987112,4530.0
82.461698381,4386.0
82.478409650,4328.0
82.495120919,4353.0
82.511832188,4258.0
82.528543457,4380.0
82.545254726,4473.0
82.561965995,4517.0
82.578677264,4403.0
82.595388533,4426.0
82.612099802,4502.0
82.628811071,4333.0
82.645522340,4472.0
82.662233608,4419.0
82.678944877,4346.0
82.695656146,4400.0
82.712367415,4486.0
82.729078684,4398.0
82.745789953,4430.0
82.762501222,4499.0
82.779212491,4379.0
82.795923760,4416.0
82.812635029,4397.0
82.829346298,4479.0
82.846057567,4394.0
82.862768836,4344.0
82.879480105,4396.0
82.896191374,4482.0
82.912902643,4419.0
82.929613912,4492.0
82.946325181,4423.0
82.963036450,4316.0
82.979747719,4346.0
82.996458988,4354.0
83.013170257,4460.0
83.029881526,4416.0
83.046592795,4325.0
83.063304064,4352.0
83.080015333,4392.0
83.096726602,4323.0
83.113437871,4425.0
83.130149140,4332.0
83.146860409,4383.0
83.163571678,4502.0
83.180282947,4371.0
83.196994216,4410.0
83.213705485,4454.0
83.230416754,4492.0
83.247128023,4487.0
83.263839292,4442.0
83.280550561,4478.0
83.297261830,4536.0
83.313973099,4550.0
83.330684368,4346.0
83.347395637,4523.0
83.364106906,4426.0
83.380818175,4467.0
83.397529444,4380.0
83.414240713,4344.0
83.430951982,4291.0
83.447663251,4412.0
83.464374519,4421.0
83.481085788,4479.0
83.497797057,4502.0
83.514508326,4318.0
83.531219595,4385.0
83.547930864,4376.0
83.564642133,4324.0
83.581353402,4326.0
83.598064671,4454.0
83.614775940,4400.0
83.631487209,4440.0
83.648198478,4414.0
83.664909747,4361.0
83.681621016,4430.0
83.698332285,4309.0
83.715043554,4362.0
83.731754823,4434.0
83.748466092,4323.0
83.765177361,4415.0
83.781888630,4369.0
83.798599899,4483.0
83.815311168,4270.0
83.832022437,4412.0
83.848733706,4404.0
83.865444975,4390.0
83.882156244,4516.0
83.898867513,4521.0
83.915578782,4435.0
83.932290051,4492.0
83.949001320,4321.0
83.965712589,4354.0
83.982423858,4514.0
83.999135127,4361.0
84.015846396,4430.0
84.032557665,4369.0
84.049268934,4456.0
84.065980203,4291.0
84.082691472,4438.0
84.099402741,4329.0
84.116114010,4452.0
84.132825279,4398.0
84.149536548,4423.0
84.166247817,4414.0
84.182959086,4461.0
84.199670355,4448.0
84.216381624,4457.0
84.233092893,4503.0
84.249804162,4397.0
84.266515431,4349.0
84.283226699,4458.0
84.299937968,4310.0
84.316649237,4415.0
84.333360506,4410.0
84.350071775,4432.0
84.366783044,4336.0
84.383494313,4352.0
84.400205582,4426.0
84.416916851,4524.0
84.433628120,4332.0
84.450339389,4417.0
84.467050658,4579.0
84.483761927,4423.0
84.500473196,4348.0
84.517184465,4436.0
84.533895734,4385.0
84.550607003,4388.0
84.567318272,4397.0
84.584029541,4372.0
84.600740810,4299.0
84.617452079,4410.0
84.634163348,4277.0
84.650874617,4346.0
84.667585886,4432.0
84.684297155,4323.0
84.701008424,4428.0
84.717719693,4322.0
84.734430962,4376.0
84.751142231,4424.0
84.767853500,4379.0
84.784564769,4360.0
84.801276038,4466.0
84.817987307,4548.0
84.834698576,4420.0
84.851409845,4288.0
84.868121114,4425.0
84.884832383,4388.0
84.901543652,4467.0
84.918254921,4337.0
84.934966190,4399.0
84.951677459,4440.0
84.968388728,4372.0
84.985099997,4502.0
85.001811266,4393.0
85.018522535,4441.0
85.035233804,4392.0
85.051945073,4474.0
85.068656342,4530.0
85.085367610,4416.0
85.102078879,4378.0
85.118790148,4391.0
85.135501417,4285.0
85.152212686,4340.0
85.168923955,4314.0
85.185635224,4383.0
85.202346493,4341.0
85.219057762,4372.0
85.235769031,4448.0
85.252480300,4342.0
85.269191569,4308.0
85.285902838,4329.0
85.302614107,4389.0
85.319325376,4319.0
85.336036645,4341.0
85.352747914,4426.0
85.369459183,4488.0
85.386170452,4564.0
85.402881721,4350.0
85.419592990,4436.0
85.436304259,4484.0
85.453015528,4439.0
85.469726797,4407.0
85.486438066,4341.0
85.503149335,4419.0
85.519860604,4525.0
85.536571873,4312.0
85.553283142,4478.0
85.569994411,4508.0
85.586705680,4417.0
85.603416949,4506.0
85.620128218,4274.0
85.636839487,4335.0
85.653550756,4478.0
85.670262025,4426.0
85.686973294,4454.0
85.703684563,4370.0
85.720395832,4358.0
85.737107101,4459.0
85.753818370,4436.0
85.770529639,4441.0
85.787240908,4340.0
85.803952177,4307.0
85.820663446,4332.0
85.837374715,4387.0
85.854085984,4326.0
85.870797253,4499.0
85.887508521,4566.0
85.904219790,4384.0
85.920931059,4316.0
85.937642328,4424.0
85.954353597,4357.0
85.971064866,4377.0
85.987776135,4377.0
86.004487404,4271.0
86.021198673,4395.0
86.037909942,4351.0
86.054621211,4420.0
86.071332480,4593.0
86.088043749,4274.0
86.104755018,4469.0
86.121466287,4532.0
86.138177556,4345.0
86.154888825,4462.0
86.171600094,4367.0
86.188311363,4474.0
86.205022632,4408.0
86.221733901,4491.0
86.238445170,4330.0
86.255156439,4536.0
86.271867708,4479.0
86.288578977,4559.0
86.305290246,4510.0
86.322001515,4403.0
86.338712784,4531.0
86.355424053,4331.0
86.372135322,4455.0
86.388846591,4438.0
86.405557860,4368.0
86.422269129,4388.0
86.438980398,4513.0
86.455691667,4538.0
86.472402936,4350.0
86.489114205,4424.0
86.505825474,4561.0
86.522536743,4465.0
86.539248012,4380.0
86.555959281,4278.0
86.572670550,4453.0
86.589381819,4460.0
86.606093088,4369.0
86.622804357,4568.0
86.639515626,4469.0
86.656226895,4424.0
86.672938164,4337.0
86.689649432,4381.0
86.706360701,4482.0
86.723071970,4387.0
86.739783239,4545.0
86.756494508,4519.0
86.773205777,4481.0
86.789917046,4433.0
86.806628315,4449.0
86.823339584,4346.0
86.840050853,4386.0
86.856762122,4332.0
86.873473391,4353.0
86.890184660,4541.0
86.906895929,4578.0
86.923607198,4448.0
86.940318467,4489.0
86.957029736,4475.0
86.973741005,4352.0
86.990452274,4340.0
87.007163543,4564.0
87.023874812,4306.0
87.040586081,4422.0
87.057297350,4489.0
87.074008619,4263.0
87.090719888,4411.0
87.107431157,4423.0
87.124142426,4412.0
87.140853695,4455.0
87.157564964,4459.0
87.174276233,4326.0
87.190987502,4383.0
87.207698771,4406.0
87.224410040,4423.0
87.241121309,4315.0
87.257832578,4403.0
87.274543847,4411.0
87.291255116,4454.0
87.307966385,4494.0
87.324677654,4510.0
87.341388923,4313.0
87.358100192,4298.0
87.374811461,4381.0
87.391522730,4472.0
87.408233999,4361.0
87.424945268,4495.0
87.441656537,4387.0
87.458367806,4431.0
87.475079075,4437.0
87.491790344,4544.0
87.508501612,4430.0
87.525212881,4342.0
87.541924150,4466.0
87.558635419,4458.0
87.575346688,4428.0
87.592057957,4395.0
87.608769226,4451.0
87.625480495,4412.0
87.642191764,4537.0
87.658903033,4462.0
87.675614302,4265.0
87.692325571,4341.0
87.709036840,4399.0
87.725748109,4544.0
87.742459378,4432.0
87.759170647,4434.0
87.775881916,4482.0
87.792593185,4436.0
87.809304454,4531.0
87.826015723,4353.0
87.842726992,4468.0
87.859438261,4334.0
87.876149530,4402.0
87.892860799,4329.0
87.909572068,4370.0
87.926283337,4425.0
87.942994606,4352.0
87.959705875,4343.0
87.976417144,4465.0
87.993128413,4470.0
88.009839682,4500.0
88.026550951,4536.0
88.043262220,4331.0
88.059973489,4389.0
88.076684758,4445.0
88.093396027,4374.0
88.110107296,4411.0
88.126818565,4428.0
88.143529834,4312.0
88.160241103,4505.0
88.176952372,4411.0
88.193663641,4400.0
88.210374910,4494.0
88.227086179,4501.0
88.243797448,4459.0
88.260508717,4512.0
88.277219986,4444.0
88.293931255,4386.0
88.310642523,4416.0
88.327353792,4282.0
88.344065061,4412.0
88.360776330,4502.0
88.377487599,4374.0
88.394198868,4626.0
88.410910137,4432.0
88.427621406,4390.0
88.444332675,4565.0
88.461043944,4460.0
88.477755213,4455.0
88.494466482,4350.0
88.511177751,4396.0
88.527889020,4464.0
88.544600289,4330.0
88.561311558,4395.0
88.578022827,4392.0
88.594734096,4480.0
88.611445365,4319.0
88.628156634,4547.0
88.644867903,4472.0
88.661579172,4511.0
88.678290441,4553.0
88.695001710,4655.0
88.711712979,4439.0
88.728424248,4549.0
88.745135517,4530.0
88.761846786,4465.0
88.778558055,4561.0
88.795269324,4445.0
88.811980593,4510.0
88.828691862,4403.0
88.845403131,4498.0
88.862114400,4556.0
88.878825669,4449.0
88.895536938,4695.0
88.912248207,4568.0
88.928959476,4464.0
88.945670745,4572.0
88.962382014,4544.0
88.979093283,4488.0
88.995804552,4456.0
89.012515821,4574.0
89.029227090,4533.0
89.045938359,4553.0
89.062649628,4626.0
89.079360897,4595.0
89.096072166,4720.0
89.112783434,4701.0
89.129494703,4728.0
89.146205972,4788.0
89.162917241,4562.0
89.179628510,4640.0
89.196339779,4622.0
89.213051048,4698.0
89.229762317,4665.0
89.246473586,4773.0
89.263184855,4840.0
89.279896124,4917.0
89.296607393,4959.0
89.313318662,5043.0
89.330029931,5152.0
89.346741200,5270.0
89.363452469,5221.0
89.380163738,5681.0
89.396875007,5686.0
89.413586276,5756.0
89.430297545,6110.0
89.447008814,6500.0
89.463720083,7003.0
89.480431352,8093.0
89.497142621,9452.0
89.513853890,11682.0
89.530565159,14519.0
89.547276428,18254.0
89.563987697,21369.0
89.580698966,22253.0
89.597410235,20071.0
89.614121504,16648.0
89.630832773,13444.0
89.647544042,10863.0
89.664255311,9262.0
89.680966580,7958.0
89.697677849,7399.0
89.714389118,7007.0
89.731100387,7049.0
89.747811656,6800.0
89.764522925,7123.0
89.781234194,7847.0
89.797945463,8431.0
89.814656732,10024.0
89.831368001,11486.0
89.848079270,12889.0
89.864790539,13077.0
89.881501808,12374.0
89.898213077,10768.0
89.914924345,9028.0
89.931635614,7862.0
89.948346883,6829.0
89.965058152,6304.0
89.981769421,5802.0
89.998480690,5452.0
90.015191959,5363.0
90.031903228,5166.0
90.048614497,5054.0
90.065325766,5002.0
90.082037035,5015.0
90.098748304,4838.0
90.115459573,4776.0
90.132170842,4776.0
90.148882111,4668.0
90.165593380,4691.0
90.182304649,4684.0
90.199015918,4614.0
90.215727187,4515.0
90.232438456,4607.0
90.249149725,4599.0
90.265860994,4386.0
90.282572263,4553.0
90.299283532,4547.0
90.315994801,4542.0
90.332706070,4572.0
90.349417339,4610.0
90.366128608,4566.0
90.382839877,4396.0
90.399551146,4539.0
90.416262415,4637.0
90.432973684,4445.0
90.449684953,4419.0
90.466396222,4520.0
90.483107491,4495.0
90.499818760,4469.0
90.516530029,4349.0
90.533241298,4515.0
90.549952567,4401.0
90.566663836,4471.0
90.583375105,4302.0
90.600086374,4576.0
90.616797643,4592.0
90.633508912,4454.0
90.650220181,4387.0
90.666931450,4562.0
90.683642719,4601.0
90.700353988,4604.0
90.717065257,4543.0
90.733776525,4472.0
90.750487794,4488.0
90.767199063,4379.0
90.783910332,4496.0
90.800621601,4338.0
90.817332870,4600.0
90.834044139,4484.0
90.850755408,4232.0
90.867466677,4428.0
90.884177946,4525.0
90.900889215,4450.0
90.917600484,4509.0
90.934311753,4439.0
90.951023022,4453.0
90.967734291,4381.0
90.984445560,4447.0
91.001156829,4458.0
91.017868098,4530.0
91.034579367,4366.0
91.051290636,4465.0
91.068001905,4364.0
91.084713174,4516.0
91.101424443,4529.0
91.118135712,4409.0
91.134846981,4453.0
91.151558250,4304.0
91.168269519,4439.0
91.184980788,4495.0
91.201692057,4453.0
91.218403326,4541.0
91.235114595,4406.0
91.251825864,4528.0
91.268537133,4398.0
91.285248402,4638.0
91.301959671,4450.0
91.318670940,4445.0
91.335382209,4496.0
91.352093478,4563.0
91.368804747,4281.0
91.385516016,4416.0
91.402227285,4335.0
91.418938554,4525.0
91.435649823,4608.0
91.452361092,4549.0
91.469072361,4414.0
91.485783630,4575.0
91.502494899,4422.0
91.519206168,4373.0
91.535917436,4495.0
91.552628705,4476.0
91.569339974,4450.0
91.586051243,4331.0
91.602762512,4479.0
91.619473781,4416.0
91.636185050,4483.0
91.652896319,4423.0
91.669607588,4473.0
91.686318857,4371.0
91.703030126,4464.0
91.719741395,4615.0
91.736452664,4367.0
91.753163933,4479.0
91.769875202,4427.0
91.786586471,4563.0
91.803297740,4434.0
91.820009009,4434.0
91.836720278,4498.0
91.853431547,4494.0
91.870142816,4521.0
91.886854085,4554.0
91.903565354,4449.0
91.920276623,4399.0
91.936987892,4565.0
91.953699161,4475.0
91.970410430,4448.0
91.987121699,4553.0
92.003832968,4502.0
92.020544237,4471.0
92.037255506,4438.0
92.053966775,4440.0
92.070678044,4387.0
92.087389313,4401.0
92.104100582,4446.0
92.120811851,4391.0
92.137523120,4441.0
92.154234389,4519.0
92.170945658,4659.0
92.187656927,4338.0
92.204368196,4327.0
92.221079465,4442.0
92.237790734,4318.0
92.254502003,4541.0
92.271213272,4395.0
92.287924541,4383.0
92.304635810,4398.0
92.321347079,4480.0
92.338058347,4431.0
92.354769616,4352.0
92.371480885,4344.0
92.388192154,4504.0
92.404903423,4563.0
92.421614692,4375.0
92.438325961,4543.0
92.455037230,4249.0
92.471748499,4361.0
92.488459768,4386.0
92.505171037,4532.0
92.521882306,4530.0
92.538593575,4475.0
92.555304844,4467.0
92.572016113,4413.0
92.588727382,4502.0
92.605438651,4579.0
92.622149920,4398.0
92.638861189,4372.0
92.655572458,4399.0
92.672283727,4488.0
92.688994996,4441.0
92.705706265,4441.0
92.722417534,4436.0
92.739128803,4352.0
92.755840072,4567.0
92.772551341,4533.0
92.789262610,4419.0
92.805973879,4501.0
92.822685148,4445.0
92.839396417,4381.0
92.856107686,4500.0
92.872818955,4400.0
92.889530224,4308.0
92.906241493,4498.0
92.922952762,4432.0
92.939664031,4408.0
92.956375300,4380.0
92.973086569,4480.0
92.989797838,4443.0
93.006509107,4389.0
93.023220376,4356.0
93.039931645,4384.0
93.056642914,4503.0
93.073354183,4499.0
93.090065452,4469.0
93.106776721,4369.0
93.123487990,4556.0
93.140199258,4509.0
93.156910527,4210.0
93.173621796,4310.0
93.190333065,4356.0
93.207044334,4312.0
93.223755603,4337.0
93.240466872,4546.0
93.257178141,4418.0
93.273889410,4494.0
93.290600679,4378.0
93.307311948,4520.0
93.324023217,4454.0
93.340734486,4479.0
93.357445755,4477.0
93.374157024,4560.0
93.390868293,4515.0
93.407579562,4408.0
93.424290831,4452.0
93.441002100,4346.0
93.457713369,4470.0
93.474424638,4344.0
93.491135907,4436.0
93.507847176,4488.0
93.524558445,4410.0
93.541269714,4388.0
93.557980983,4354.0
93.574692252,4569.0
93.591403521,4413.0
93.608114790,4429.0
93.624826059,4594.0
93.641537328,4485.0
93.658248597,4463.0
93.674959866,4533.0
93.691671135,4434.0
93.708382404,4388.0
93.725093673,4442.0
93.741804942,4526.0
93.758516211,4559.0
93.775227480,4473.0
93.791938749,4523.0
93.808650018,4549.0
93.825361287,4444.0
93.842072556,4431.0
93.858783825,4497.0
93.875495094,4513.0
93.892206363,4500.0
93.908917632,4542.0
93.925628901,4535.0
93.942340170,4480.0
93.959051438,4695.0
93.975762707,4521.0
93.992473976,4494.0
94.009185245,4384.0
94.025896514,4525.0
94.042607783,4421.0
94.059319052,4481.0
94.076030321,4663.0
94.092741590,4605.0
94.109452859,4602.0
94.126164128,4488.0
94.142875397,4573.0
94.159586666,4648.0
94.176297935,4556.0
94.193009204,4500.0
94.209720473,4553.0
94.226431742,4525.0
94.243143011,4654.0
94.259854280,4866.0
94.276565549,4645.0
94.293276818,4524.0
94.309988087,4665.0
94.326699356,4649.0
94.343410625,4626.0
94.360121894,4773.0
94.376833163,4660.0
94.393544432,4712.0
94.410255701,4712.0
94.426966970,4667.0
94.443678239,4660.0
94.460389508,4832.0
94.477100777,4951.0
94.493812046,5047.0
94.510523315,4983.0
94.527234584,5104.0
94.543945853,5139.0
94.560657122,5242.0
94.577368391,5332.0
94.594079660,5507.0
94.610790929,5765.0
94.627502198,5968.0
94.644213467,6249.0
94.660924736,6885.0
94.677636005,7733.0
94.694347274,9180.0
94.711058543,11414.0
94.727769812,15009.0
94.744481081,20115.0
94.761192349,23953.0
94.777903618,24417.0
94.794614887,21178.0
94.811326156,16639.0
94.828037425,13191.0
94.844748694,10524.0
94.861459963,8622.0
94.878171232,7440.0
94.894882501,6914.0
94.911593770,6632.0
94.928305039,6335.0
94.945016308,6210.0
94.961727577,6451.0
94.978438846,6631.0
94.995150115,6943.0
95.011861384,7679.0
95.028572653,8881.0
95.045283922,10861.0
95.061995191,12833.0
95.078706460,14123.0
95.095417729,13830.0
95.112128998,12176.0
95.128840267,10042.0
95.145551536,8473.0
95.162262805,7327.0
95.178974074,6479.0
95.195685343,5786.0
95.212396612,5660.0
95.229107881,5197.0
95.245819150,5183.0
95.262530419,5104.0
95.279241688,5061.0
95.295952957,4991.0
95.312664226,4818.0
95.329375495,4689.0
95.346086764,4832.0
95.362798033,4705.0
95.379509302,4847.0
95.396220571,4656.0
95.412931840,4688.0
95.429643109,4573.0
95.446354378,4556.0
95.463065647,4496.0
95.479776916,4466.0
95.496488185,4488.0
95.513199454,4637.0
95.529910723,4680.0
95.546621992,4574.0
95.563333260,4694.0
95.580044529,4441.0
95.596755798,4565.0
95.613467067,4495.0
95.630178336,4532.0
95.646889605,4441.0
95.663600874,4419.0
95.680312143,4558.0
95.697023412,4473.0
95.713734681,4411.0
95.730445950,4476.0
95.747157219,4421.0
95.763868488,4477.0
95.780579757,4549.0
95.797291026,4494.0
95.814002295,4454.0
95.830713564,4527.0
95.847424833,4492.0
95.864136102,4537.0
95.880847371,4450.0
95.897558640,4499.0
95.914269909,4551.0
95.930981178,4596.0
95.947692447,4496.0
95.964403716,4464.0
95.981114985,4578.0
95.997826254,4423.0
96.014537523,4369.0
96.031248792,4498.0
96.047960061,4354.0
96.064671330,4410.0
96.081382599,4499.0
96.098093868,4525.0
96.114805137,4466.0
96.131516406,4351.0
96.148227675,4432.0
96.164938944,4473.0
96.181650213,4620.0
96.198361482,4501.0
96.215072751,4481.0
96.231784020,4468.0
96.248495289,4431.0
96.265206558,4469.0
96.281917827,4443.0
96.298629096,4410.0
96.315340365,4421.0
96.332051634,4361.0
96.348762903,4530.0
96.365474171,4487.0
96.382185440,4325.0
96.398896709,4489.0
96.415607978,4330.0
96.432319247,4464.0
96.449030516,4284.0
96.465741785,4508.0
96.482453054,4430.0
96.499164323,4436.0
96.515875592,4424.0
96.532586861,4443.0
96.549298130,4442.0
96.566009399,4403.0
96.582720668,4427.0
96.599431937,4573.0
96.616143206,4438.0
96.632854475,4426.0
96.649565744,4353.0
96.666277013,4437.0
96.682988282,4583.0
96.699699551,4346.0
96.716410820,4480.0
96.733122089,4376.0
96.749833358,4335.0
96.766544627,4410.0
96.783255896,4345.0
96.799967165,4389.0
96.816678434,4463.0
96.833389703,4382.0
96.850100972,4344.0
96.866812241,4408.0
96.883523510,4428.0
96.900234779,4343.0
96.916946048,4582.0
96.933657317,4408.0
96.950368586,4335.0
96.967079855,4337.0
96.983791124,4407.0
97.000502393,4492.0
97.017213662,4297.0
97.033924931,4413.0
97.050636200,4425.0
97.067347469,4279.0
97.084058738,4430.0
97.100770007,4564.0
97.117481276,4504.0
97.134192545,4353.0
97.150903814,4345.0
97.167615083,4299.0
97.184326351,4515.0
97.201037620,4386.0
97.217748889,4383.0
97.234460158,4406.0
97.251171427,4436.0
97.267882696,4350.0
97.284593965,4395.0
97.301305234,4477.0
97.318016503,4380.0
97.334727772,4430.0
97.351439041,4329.0
97.368150310,4369.0
97.384861579,4384.0
97.401572848,4463.0
97.418284117,4353.0
97.434995386,4472.0
97.451706655,4488.0
97.468417924,4418.0
97.485129193,4415.0
97.501840462,4465.0
97.518551731,4355.0
97.535263000,4475.0
97.551974269,4317.0
97.568685538,4353.0
97.585396807,4457.0
97.602108076,4307.0
97.618819345,4323.0
97.635530614,4352.0
97.652241883,4392.0
97.668953152,4295.0
97.685664421,4440.0
97.702375690,4362.0
97.719086959,4366.0
97.735798228,4416.0
97.752509497,4344.0
97.769220766,4459.0
97.785932035,4225.0
97.802643304,4383.0
97.819354573,4391.0
97.836065842,4318.0
97.852777111,4443.0
97.869488380,4477.0
97.886199649,4425.0
97.902910918,4432.0
97.919622187,4346.0
97.936333456,4475.0
97.953044725,4468.0
97.969755994,4495.0
97.986467262,4335.0
98.003178531,4451.0
98.019889800,4437.0
98.036601069,4536.0
98.053312338,4405.0
98.070023607,4387.0
98.086734876,4413.0
98.103446145,4428.0
98.120157414,4452.0
98.136868683,4364.0
98.153579952,4599.0
98.170291221,4418.0
98.187002490,4346.0
98.203713759,4374.0
98.220425028,4423.0
98.237136297,4359.0
98.253847566,4390.0
98.270558835,4355.0
98.287270104,4359.0
98.303981373,4408.0
98.320692642,4343.0
98.337403911,4437.0
98.354115180,4353.0
98.370826449,4481.0
98.387537718,4461.0
98.404248987,4410.0
98.420960256,4273.0
98.437671525,4304.0
98.454382794,4518.0
98.471094063,4396.0
98.487805332,4302.0
98.504516601,4427.0
98.521227870,4340.0
98.537939139,4361.0
98.554650408,4362.0
98.571361677,4396.0
98.588072946,4377.0
98.604784215,4284.0
98.621495484,4359.0
98.638206753,4332.0
98.654918022,4501.0
98.671629291,4365.0
98.688340560,4476.0
98.705051829,4440.0
98.721763098,4515.0
98.738474367,4470.0
98.755185636,4352.0
98.771896905,4326.0
98.788608173,4428.0
98.805319442,4373.0
98.822030711,4378.0
98.838741980,4364.0
98.855453249,4427.0
98.872164518,4412.0
98.888875787,4452.0
98.905587056,4523.0
98.922298325,4460.0
98.939009594,4503.0
98.955720863,4362.0
98.972432132,4403.0
98.989143401,4351.0
99.005854670,4365.0
99.022565939,4413.0
99.039277208,4379.0
99.055988477,4327.0
99.072699746,4395.0
99.089411015,4470.0
99.106122284,4479.0
99.122833553,4393.0
99.139544822,4336.0
99.156256091,4238.0
99.172967360,4410.0
99.189678629,4430.0
99.206389898,4355.0
99.223101167,4310.0
99.239812436,4302.0
99.256523705,4244.0
99.273234974,4418.0
99.289946243,4443.0
99.306657512,4364.0
99.323368781,4356.0
99.340080050,4349.0
99.356791319,4486.0
99.373502588,4384.0
99.390213857,4321.0
99.406925126,4436.0
99.423636395,4494.0
99.440347664,4311.0
99.457058933,4365.0
99.473770202,4459.0
99.490481471,4329.0
99.507192740,4269.0
99.523904009,4416.0
99.540615278,4346.0
99.557326547,4364.0
99.574037816,4292.0
99.590749084,4355.0
99.607460353,4330.0
99.624171622,4417.0
99.640882891,4444.0
99.657594160,4346.0
99.674305429,4327.0
99.691016698,4380.0
99.707727967,4478.0
99.724439236,4381.0
99.741150505,4309.0
99.757861774,4374.0
99.774573043,4305.0
99.791284312,4407.0
99.807995581,4352.0
99.824706850,4577.0
99.841418119,4326.0
99.858129388,4243.0
99.874840657,4361.0
99.891551926,4331.0
99.908263195,4415.0
99.924974464,4431.0
99.941685733,4401.0
99.958397002,4479.0
99.975108271,4376.0
99.991819540,4378.0
