[Measurement conditions]
Sample identification,
Comment - 1,"finito"
Comment - 2,"Configuration=MRI TC-Basic Stage, Owner=User-1, Creation date=26-10-2009 9:18:44"
Comment - 3,"Goniometer=PW3050/60 (Theta/Theta); Minimum step size 2Theta:0.001; Minimum step size Omega:0.001"
Comment - 4,"Sample stage=MRI TC-Basic (PtRh heat strip)"
Comment - 5,"Diffractometer system=XPERT-PRO"
Comment - 6,"Measurement program=FlatStage, Owner=joana, Creation date=03-08-2011 15:43:53"
Anode material,Cu
K-Alpha1 wavelength,1.5405980
K-Alpha2 wavelength,1.5444260
Ratio K-Alpha2/K-Alpha1,0.500
Divergence slit,Fixed,0.76mm
Monochromator used,NO
Generator voltage, 45
Tube current, 40
File date and time,06/Dec/2012 18:55
Unit cell,
h k l, 0 0 0
Temperature [K],302
Scan axis,Gonio
Scan range,24.999999996,100.000175174
Scan step size,0.0167113
No. of points, 4488
Scan type,CONTINUOUS
Time per step,53.340
[Scan points]
Angle,Intensity
25.008355630,4623.0
25.025066899,4503.0
25.041778168,4720.0
25.058489437,4646.0
25.075200706,4721.0
25.091911975,4623.0
25.108623244,4631.0
25.125334513,4635.0
25.142045782,4570.0
25.158757051,4670.0
25.175468320,4530.0
25.192179589,4655.0
25.208890858,4532.0
25.225602127,4724.0
25.242313396,4562.0
25.259024665,4712.0
25.275735934,4659.0
25.292447203,4574.0
25.309158472,4538.0
25.325869741,4679.0
25.342581010,4636.0
25.359292279,4497.0
25.376003548,4587.0
25.392714817,4612.0
25.409426086,4560.0
25.426137354,4507.0
25.442848623,4686.0
25.459559892,4370.0
25.476271161,4532.0
25.492982430,4579.0
25.509693699,4603.0
25.526404968,4549.0
25.543116237,4507.0
25.559827506,4551.0
25.576538775,4510.0
25.593250044,4769.0
25.609961313,4650.0
25.626672582,4652.0
25.643383851,4679.0
25.660095120,4589.0
25.676806389,4562.0
25.693517658,4613.0
25.710228927,4493.0
25.726940196,4566.0
25.743651465,4465.0
25.760362734,4614.0
25.777074003,4489.0
25.793785272,4517.0
25.810496541,4549.0
25.827207810,4730.0
25.843919079,4578.0
25.860630348,4630.0
25.877341617,4536.0
25.894052886,4689.0
25.910764155,4586.0
25.927475424,4583.0
25.944186693,4482.0
25.960897962,4558.0
25.977609231,4491.0
25.994320500,4503.0
26.011031769,4385.0
26.027743038,4560.0
26.044454307,4586.0
26.061165576,4583.0
26.077876845,4566.0
26.094588114,4567.0
26.111299383,4606.0
26.128010652,4534.0
26.144721921,4561.0
26.161433190,4599.0
26.178144459,4503.0
26.194855728,4682.0
26.211566997,4620.0
26.228278265,4726.0
26.244989534,4546.0
26.261700803,4633.0
26.278412072,4533.0
26.295123341,4716.0
26.311834610,4644.0
26.328545879,4514.0
26.345257148,4621.0
26.361968417,4522.0
26.378679686,4522.0
26.395390955,4478.0
26.412102224,4596.0
26.428813493,4615.0
26.445524762,4573.0
26.462236031,4553.0
26.478947300,4521.0
26.495658569,4550.0
26.512369838,4517.0
26.529081107,4562.0
26.545792376,4505.0
26.562503645,4581.0
26.579214914,4605.0
26.595926183,4637.0
26.612637452,4608.0
26.629348721,4627.0
26.646059990,4467.0
26.662771259,4571.0
26.679482528,4530.0
26.696193797,4535.0
26.712905066,4487.0
26.729616335,4531.0
26.746327604,4517.0
26.763038873,4612.0
26.779750142,4484.0
26.796461411,4597.0
26.813172680,4617.0
26.829883949,4477.0
26.846595218,4525.0
26.863306487,4447.0
26.880017756,4455.0
26.896729025,4580.0
26.913440294,4587.0
26.930151563,4500.0
26.946862832,4480.0
26.963574101,4573.0
26.980285370,4503.0
26.996996639,4539.0
27.013707908,4696.0
27.030419176,4625.0
27.047130445,4624.0
27.063841714,4434.0
27.080552983,4546.0
27.097264252,4579.0
27.113975521,4502.0
27.130686790,4593.0
27.147398059,4640.0
27.164109328,4606.0
27.180820597,4542.0
27.197531866,4686.0
27.214243135,4591.0
27.230954404,4663.0
27.247665673,4586.0
27.264376942,4571.0
27.281088211,4589.0
27.297799480,4464.0
27.314510749,4508.0
27.331222018,4569.0
27.347933287,4560.0
27.364644556,4493.0
27.381355825,4456.0
27.398067094,4657.0
27.414778363,4548.0
27.431489632,4492.0
27.448200901,4522.0
27.464912170,4393.0
27.481623439,4478.0
27.498334708,4677.0
27.515045977,4555.0
27.531757246,4452.0
27.548468515,4575.0
27.565179784,4403.0
27.581891053,4473.0
27.598602322,4553.0
27.615313591,4540.0
27.632024860,4520.0
27.648736129,4559.0
27.665447398,4495.0
27.682158667,4585.0
27.698869936,4495.0
27.715581205,4418.0
27.732292474,4478.0
27.749003743,4526.0
27.765715012,4627.0
27.782426281,4634.0
27.799137550,4570.0
27.815848819,4429.0
27.832560087,4485.0
27.849271356,4584.0
27.865982625,4504.0
27.882693894,4550.0
27.899405163,4498.0
27.916116432,4489.0
27.932827701,4556.0
27.949538970,4587.0
27.966250239,4619.0
27.982961508,4489.0
27.999672777,4455.0
28.016384046,4676.0
28.033095315,4560.0
28.049806584,4532.0
28.066517853,4569.0
28.083229122,4659.0
28.099940391,4465.0
28.116651660,4583.0
28.133362929,4497.0
28.150074198,4637.0
28.166785467,4586.0
28.183496736,4702.0
28.200208005,4511.0
28.216919274,4499.0
28.233630543,4537.0
28.250341812,4613.0
28.267053081,4601.0
28.283764350,4490.0
28.300475619,4528.0
28.317186888,4513.0
28.333898157,4575.0
28.350609426,4702.0
28.367320695,4597.0
28.384031964,4607.0
28.400743233,4527.0
28.417454502,4494.0
28.434165771,4505.0
28.450877040,4446.0
28.467588309,4413.0
28.484299578,4533.0
28.501010847,4652.0
28.517722116,4602.0
28.534433385,4579.0
28.551144654,4507.0
28.567855923,4478.0
28.584567192,4590.0
28.601278461,4469.0
28.617989730,4530.0
28.634700999,4513.0
28.651412267,4424.0
28.668123536,4475.0
28.684834805,4490.0
28.701546074,4590.0
28.718257343,4419.0
28.734968612,4564.0
28.751679881,4479.0
28.768391150,4501.0
28.785102419,4474.0
28.801813688,4495.0
28.818524957,4591.0
28.835236226,4491.0
28.851947495,4605.0
28.868658764,4419.0
28.885370033,4622.0
28.902081302,4585.0
28.918792571,4457.0
28.935503840,4521.0
28.952215109,4562.0
28.968926378,4476.0
28.985637647,4496.0
29.002348916,4502.0
29.019060185,4495.0
29.035771454,4582.0
29.052482723,4457.0
29.069193992,4613.0
29.085905261,4560.0
29.102616530,4557.0
29.119327799,4459.0
29.136039068,4492.0
29.152750337,4587.0
29.169461606,4510.0
29.186172875,4610.0
29.202884144,4465.0
29.219595413,4447.0
29.236306682,4446.0
29.253017951,4443.0
29.269729220,4571.0
29.286440489,4492.0
29.303151758,4420.0
29.319863027,4402.0
29.336574296,4630.0
29.353285565,4655.0
29.369996834,4619.0
29.386708103,4497.0
29.403419372,4517.0
29.420130641,4609.0
29.436841910,4532.0
29.453553178,4429.0
29.470264447,4536.0
29.486975716,4606.0
29.503686985,4580.0
29.520398254,4468.0
29.537109523,4461.0
29.553820792,4529.0
29.570532061,4498.0
29.587243330,4431.0
29.603954599,4484.0
29.620665868,4518.0
29.637377137,4517.0
29.654088406,4472.0
29.670799675,4464.0
29.687510944,4443.0
29.704222213,4343.0
29.720933482,4521.0
29.737644751,4406.0
29.754356020,4450.0
29.771067289,4483.0
29.787778558,4521.0
29.804489827,4567.0
29.821201096,4357.0
29.837912365,4543.0
29.854623634,4531.0
29.871334903,4529.0
29.888046172,4392.0
29.904757441,4543.0
29.921468710,4594.0
29.938179979,4489.0
29.954891248,4473.0
29.971602517,4470.0
29.988313786,4513.0
30.005025055,4428.0
30.021736324,4495.0
30.038447593,4447.0
30.055158862,4450.0
30.071870131,4509.0
30.088581400,4436.0
30.105292669,4530.0
30.122003938,4477.0
30.138715207,4418.0
30.155426476,4417.0
30.172137745,4493.0
30.188849014,4579.0
30.205560283,4450.0
30.222271552,4473.0
30.238982821,4495.0
30.255694089,4497.0
30.272405358,4487.0
30.289116627,4584.0
30.305827896,4502.0
30.322539165,4549.0
30.339250434,4434.0
30.355961703,4482.0
30.372672972,4503.0
30.389384241,4562.0
30.406095510,4454.0
30.422806779,4532.0
30.439518048,4523.0
30.456229317,4386.0
30.472940586,4480.0
30.489651855,4457.0
30.506363124,4523.0
30.523074393,4511.0
30.539785662,4526.0
30.556496931,4571.0
30.573208200,4546.0
30.589919469,4469.0
30.606630738,4371.0
30.623342007,4436.0
30.640053276,4511.0
30.656764545,4532.0
30.673475814,4615.0
30.690187083,4705.0
30.706898352,4348.0
30.723609621,4508.0
30.740320890,4429.0
30.757032159,4432.0
30.773743428,4532.0
30.790454697,4526.0
30.807165966,4543.0
30.823877235,4415.0
30.840588504,4527.0
30.857299773,4590.0
30.874011042,4371.0
30.890722311,4390.0
30.907433580,4609.0
30.924144849,4499.0
30.940856118,4636.0
30.957567387,4331.0
30.974278656,4617.0
30.990989925,4479.0
31.007701194,4353.0
31.024412463,4493.0
31.041123732,4434.0
31.057835000,4395.0
31.074546269,4498.0
31.091257538,4481.0
31.107968807,4420.0
31.124680076,4528.0
31.141391345,4563.0
31.158102614,4404.0
31.174813883,4606.0
31.191525152,4503.0
31.208236421,4386.0
31.224947690,4369.0
31.241658959,4534.0
31.258370228,4459.0
31.275081497,4537.0
31.291792766,4533.0
31.308504035,4469.0
31.325215304,4535.0
31.341926573,4474.0
31.358637842,4425.0
31.375349111,4418.0
31.392060380,4416.0
31.408771649,4507.0
31.425482918,4434.0
31.442194187,4447.0
31.458905456,4537.0
31.475616725,4482.0
31.492327994,4476.0
31.509039263,4520.0
31.525750532,4478.0
31.542461801,4475.0
31.559173070,4386.0
31.575884339,4568.0
31.592595608,4464.0
31.609306877,4513.0
31.626018146,4389.0
31.642729415,4458.0
31.659440684,4446.0
31.676151953,4563.0
31.692863222,4502.0
31.709574491,4493.0
31.726285760,4513.0
31.742997029,4461.0
31.759708298,4310.0
31.776419567,4312.0
31.793130836,4448.0
31.809842105,4510.0
31.826553374,4418.0
31.843264643,4320.0
31.859975912,4400.0
31.876687180,4410.0
31.893398449,4560.0
31.910109718,4534.0
31.926820987,4511.0
31.943532256,4513.0
31.960243525,4444.0
31.976954794,4459.0
31.993666063,4432.0
32.010377332,4377.0
32.027088601,4481.0
32.043799870,4406.0
32.060511139,4532.0
32.077222408,4363.0
32.093933677,4483.0
32.110644946,4343.0
32.127356215,4458.0
32.144067484,4382.0
32.160778753,4475.0
32.177490022,4424.0
32.194201291,4427.0
32.210912560,4454.0
32.227623829,4381.0
32.244335098,4546.0
32.261046367,4439.0
32.277757636,4403.0
32.294468905,4367.0
32.311180174,4375.0
32.327891443,4557.0
32.344602712,4394.0
32.361313981,4392.0
32.378025250,4647.0
32.394736519,4455.0
32.411447788,4421.0
32.428159057,4374.0
32.444870326,4417.0
32.461581595,4396.0
32.478292864,4343.0
32.495004133,4448.0
32.511715402,4579.0
32.528426671,4487.0
32.545137940,4455.0
32.561849209,4554.0
32.578560478,4377.0
32.595271747,4514.0
32.611983016,4351.0
32.628694285,4475.0
32.645405554,4423.0
32.662116823,4660.0
32.678828091,4348.0
32.695539360,4474.0
32.712250629,4419.0
32.728961898,4540.0
32.745673167,4365.0
32.762384436,4522.0
32.779095705,4479.0
32.795806974,4461.0
32.812518243,4413.0
32.829229512,4423.0
32.845940781,4425.0
32.862652050,4369.0
32.879363319,4408.0
32.896074588,4451.0
32.912785857,4531.0
32.929497126,4326.0
32.946208395,4430.0
32.962919664,4418.0
32.979630933,4519.0
32.996342202,4513.0
33.013053471,4495.0
33.029764740,4438.0
33.046476009,4357.0
33.063187278,4522.0
33.079898547,4482.0
33.096609816,4494.0
33.113321085,4420.0
33.130032354,4387.0
33.146743623,4443.0
33.163454892,4465.0
33.180166161,4521.0
33.196877430,4510.0
33.213588699,4351.0
33.230299968,4556.0
33.247011237,4582.0
33.263722506,4435.0
33.280433775,4622.0
33.297145044,4499.0
33.313856313,4438.0
33.330567582,4459.0
33.347278851,4380.0
33.363990120,4378.0
33.380701389,4376.0
33.397412658,4508.0
33.414123927,4561.0
33.430835196,4521.0
33.447546465,4447.0
33.464257734,4412.0
33.480969002,4427.0
33.497680271,4526.0
33.514391540,4399.0
33.531102809,4501.0
33.547814078,4430.0
33.564525347,4381.0
33.581236616,4424.0
33.597947885,4424.0
33.614659154,4375.0
33.631370423,4554.0
33.648081692,4466.0
33.664792961,4508.0
33.681504230,4395.0
33.698215499,4546.0
33.714926768,4400.0
33.731638037,4429.0
33.748349306,4514.0
33.765060575,4448.0
33.781771844,4357.0
33.798483113,4440.0
33.815194382,4410.0
33.831905651,4404.0
33.848616920,4505.0
33.865328189,4539.0
33.882039458,4446.0
33.898750727,4507.0
33.915461996,4397.0
33.932173265,4478.0
33.948884534,4479.0
33.965595803,4444.0
33.982307072,4487.0
33.999018341,4417.0
34.015729610,4538.0
34.032440879,4506.0
34.049152148,4346.0
34.065863417,4552.0
34.082574686,4428.0
34.099285955,4452.0
34.115997224,4386.0
34.132708493,4459.0
34.149419762,4456.0
34.166131031,4429.0
34.182842300,4559.0
34.199553569,4410.0
34.216264838,4456.0
34.232976107,4517.0
34.249687376,4500.0
34.266398645,4453.0
34.283109913,4463.0
34.299821182,4497.0
34.316532451,4396.0
34.333243720,4485.0
34.349954989,4485.0
34.366666258,4493.0
34.383377527,4430.0
34.400088796,4537.0
34.416800065,4515.0
34.433511334,4517.0
34.450222603,4491.0
34.466933872,4499.0
34.483645141,4476.0
34.500356410,4467.0
34.517067679,4430.0
34.533778948,4515.0
34.550490217,4474.0
34.567201486,4370.0
34.583912755,4519.0
34.600624024,4325.0
34.617335293,4394.0
34.634046562,4392.0
34.650757831,4518.0
34.667469100,4409.0
34.684180369,4468.0
34.700891638,4450.0
34.717602907,4320.0
34.734314176,4504.0
34.751025445,4520.0
34.767736714,4392.0
34.784447983,4456.0
34.801159252,4349.0
34.817870521,4466.0
34.834581790,4381.0
34.851293059,4495.0
34.868004328,4312.0
34.884715597,4446.0
34.901426866,4430.0
34.918138135,4520.0
34.934849404,4498.0
34.951560673,4551.0
34.968271942,4457.0
34.984983211,4470.0
35.001694480,4457.0
35.018405749,4567.0
35.035117018,4476.0
35.051828287,4387.0
35.068539556,4554.0
35.085250825,4397.0
35.101962093,4524.0
35.118673362,4432.0
35.135384631,4579.0
35.152095900,4568.0
35.168807169,4350.0
35.185518438,4582.0
35.202229707,4379.0
35.218940976,4490.0
35.235652245,4381.0
35.252363514,4386.0
35.269074783,4688.0
35.285786052,4444.0
35.302497321,4428.0
35.319208590,4520.0
35.335919859,4488.0
35.352631128,4448.0
35.369342397,4444.0
35.386053666,4516.0
35.402764935,4446.0
35.419476204,4421.0
35.436187473,4586.0
35.452898742,4394.0
35.469610011,4398.0
35.486321280,4542.0
35.503032549,4448.0
35.519743818,4449.0
35.536455087,4461.0
35.553166356,4472.0
35.569877625,4530.0
35.586588894,4366.0
35.603300163,4406.0
35.620011432,4493.0
35.636722701,4462.0
35.653433970,4500.0
35.670145239,4396.0
35.686856508,4514.0
35.703567777,4498.0
35.720279046,4412.0
35.736990315,4436.0
35.753701584,4345.0
35.770412853,4393.0
35.787124122,4403.0
35.803835391,4388.0
35.820546660,4382.0
35.837257929,4435.0
35.853969198,4392.0
35.870680467,4324.0
35.887391736,4458.0
35.904103004,4499.0
35.920814273,4470.0
35.937525542,4536.0
35.954236811,4518.0
35.970948080,4331.0
35.987659349,4459.0
36.004370618,4325.0
36.021081887,4468.0
36.037793156,4453.0
36.054504425,4450.0
36.071215694,4341.0
36.087926963,4409.0
36.104638232,4442.0
36.121349501,4387.0
36.138060770,4398.0
36.154772039,4437.0
36.171483308,4519.0
36.188194577,4488.0
36.204905846,4380.0
36.221617115,4376.0
36.238328384,4480.0
36.255039653,4587.0
36.271750922,4441.0
36.288462191,4523.0
36.305173460,4554.0
36.321884729,4494.0
36.338595998,4465.0
36.355307267,4634.0
36.372018536,4515.0
36.388729805,4429.0
36.405441074,4310.0
36.422152343,4525.0
36.438863612,4357.0
36.455574881,4472.0
36.472286150,4413.0
36.488997419,4468.0
36.505708688,4485.0
36.522419957,4379.0
36.539131226,4361.0
36.555842495,4457.0
36.572553764,4393.0
36.589265033,4541.0
36.605976302,4446.0
36.622687571,4508.0
36.639398840,4494.0
36.656110109,4471.0
36.672821378,4381.0
36.689532647,4406.0
36.706243915,4341.0
36.722955184,4475.0
36.739666453,4429.0
36.756377722,4360.0
36.773088991,4392.0
36.789800260,4411.0
36.806511529,4443.0
36.823222798,4406.0
36.839934067,4492.0
36.856645336,4560.0
36.873356605,4360.0
36.890067874,4556.0
36.906779143,4473.0
36.923490412,4367.0
36.940201681,4396.0
36.956912950,4370.0
36.973624219,4465.0
36.990335488,4451.0
37.007046757,4532.0
37.023758026,4493.0
37.040469295,4411.0
37.057180564,4319.0
37.073891833,4500.0
37.090603102,4465.0
37.107314371,4331.0
37.124025640,4483.0
37.140736909,4324.0
37.157448178,4568.0
37.174159447,4373.0
37.190870716,4457.0
37.207581985,4579.0
37.224293254,4489.0
37.241004523,4528.0
37.257715792,4522.0
37.274427061,4483.0
37.291138330,4414.0
37.307849599,4310.0
37.324560868,4480.0
37.341272137,4489.0
37.357983406,4478.0
37.374694675,4476.0
37.391405944,4515.0
37.408117213,4470.0
37.424828482,4521.0
37.441539751,4465.0
37.458251020,4527.0
37.474962289,4460.0
37.491673558,4657.0
37.508384826,4530.0
37.525096095,4442.0
37.541807364,4550.0
37.558518633,4450.0
37.575229902,4350.0
37.591941171,4452.0
37.608652440,4529.0
37.625363709,4367.0
37.642074978,4598.0
37.658786247,4455.0
37.675497516,4575.0
37.692208785,4573.0
37.708920054,4442.0
37.725631323,4532.0
37.742342592,4474.0
37.759053861,4522.0
37.775765130,4443.0
37.792476399,4457.0
37.809187668,4541.0
37.825898937,4526.0
37.842610206,4616.0
37.859321475,4476.0
37.876032744,4497.0
37.892744013,4443.0
37.909455282,4497.0
37.926166551,4464.0
37.942877820,4420.0
37.959589089,4452.0
37.976300358,4607.0
37.993011627,4496.0
38.009722896,4580.0
38.026434165,4406.0
38.043145434,4501.0
38.059856703,4586.0
38.076567972,4641.0
38.093279241,4628.0
38.109990510,4591.0
38.126701779,4449.0
38.143413048,4566.0
38.160124317,4506.0
38.176835586,4592.0
38.193546855,4524.0
38.210258124,4564.0
38.226969393,4385.0
38.243680662,4533.0
38.260391931,4500.0
38.277103200,4498.0
38.293814469,4557.0
38.310525738,4471.0
38.327237006,4572.0
38.343948275,4432.0
38.360659544,4574.0
38.377370813,4609.0
38.394082082,4480.0
38.410793351,4615.0
38.427504620,4560.0
38.444215889,4563.0
38.460927158,4509.0
38.477638427,4550.0
38.494349696,4530.0
38.511060965,4479.0
38.527772234,4446.0
38.544483503,4548.0
38.561194772,4598.0
38.577906041,4585.0
38.594617310,4571.0
38.611328579,4622.0
38.628039848,4664.0
38.644751117,4570.0
38.661462386,4594.0
38.678173655,4655.0
38.694884924,4708.0
38.711596193,4728.0
38.728307462,4783.0
38.745018731,4929.0
38.761730000,5078.0
38.778441269,5462.0
38.795152538,5677.0
38.811863807,5432.0
38.828575076,5199.0
38.845286345,4898.0
38.861997614,4669.0
38.878708883,4700.0
38.895420152,4571.0
38.912131421,4679.0
38.928842690,4589.0
38.945553959,4585.0
38.962265228,4615.0
38.978976497,4433.0
38.995687766,4610.0
39.012399035,4489.0
39.029110304,4527.0
39.045821573,4545.0
39.062532842,4601.0
39.079244111,4658.0
39.095955380,4488.0
39.112666649,4645.0
39.129377917,4586.0
39.146089186,4619.0
39.162800455,4529.0
39.179511724,4788.0
39.196222993,4580.0
39.212934262,4633.0
39.229645531,4545.0
39.246356800,4610.0
39.263068069,4425.0
39.279779338,4468.0
39.296490607,4634.0
39.313201876,4653.0
39.329913145,4474.0
39.346624414,4534.0
39.363335683,4494.0
39.380046952,4675.0
39.396758221,4542.0
39.413469490,4582.0
39.430180759,4593.0
39.446892028,4504.0
39.463603297,4404.0
39.480314566,4525.0
39.497025835,4494.0
39.513737104,4564.0
39.530448373,4514.0
39.547159642,4494.0
39.563870911,4511.0
39.580582180,4577.0
39.597293449,4484.0
39.614004718,4540.0
39.630715987,4476.0
39.647427256,4501.0
39.664138525,4511.0
39.680849794,4597.0
39.697561063,4571.0
39.714272332,4539.0
39.730983601,4508.0
39.747694870,4575.0
39.764406139,4571.0
39.781117408,4563.0
39.797828677,4482.0
39.814539946,4529.0
39.831251215,4627.0
39.847962484,4528.0
39.864673753,4455.0
39.881385022,4702.0
39.898096291,4632.0
39.914807560,4458.0
39.931518828,4482.0
39.948230097,4589.0
39.964941366,4578.0
39.981652635,4606.0
39.998363904,4587.0
40.015075173,4599.0
40.031786442,4448.0
40.048497711,4594.0
40.065208980,4478.0
40.081920249,4558.0
40.098631518,4500.0
40.115342787,4644.0
40.132054056,4643.0
40.148765325,4571.0
40.165476594,4506.0
40.182187863,4504.0
40.198899132,4476.0
40.215610401,4571.0
40.232321670,4685.0
40.249032939,4481.0
40.265744208,4652.0
40.282455477,4536.0
40.299166746,4593.0
40.315878015,4595.0
40.332589284,4531.0
40.349300553,4639.0
40.366011822,4531.0
40.382723091,4644.0
40.399434360,4598.0
40.416145629,4467.0
40.432856898,4469.0
40.449568167,4577.0
40.466279436,4521.0
40.482990705,4482.0
40.499701974,4620.0
40.516413243,4552.0
40.533124512,4552.0
40.549835781,4534.0
40.566547050,4473.0
40.583258319,4555.0
40.599969588,4463.0
40.616680857,4588.0
40.633392126,4527.0
40.650103395,4659.0
40.666814664,4495.0
40.683525933,4513.0
40.700237202,4495.0
40.716948471,4371.0
40.733659739,4590.0
40.750371008,4504.0
40.767082277,4506.0
40.783793546,4625.0
40.800504815,4506.0
40.817216084,4586.0
40.833927353,4595.0
40.850638622,4588.0
40.867349891,4480.0
40.884061160,4591.0
40.900772429,4606.0
40.917483698,4469.0
40.934194967,4518.0
40.950906236,4520.0
40.967617505,4500.0
40.984328774,4562.0
41.001040043,4646.0
41.017751312,4512.0
41.034462581,4539.0
41.051173850,4598.0
41.067885119,4521.0
41.084596388,4623.0
41.101307657,4559.0
41.118018926,4535.0
41.134730195,4637.0
41.151441464,4540.0
41.168152733,4534.0
41.184864002,4564.0
41.201575271,4766.0
41.218286540,4555.0
41.234997809,4490.0
41.251709078,4652.0
41.268420347,4679.0
41.285131616,4497.0
41.301842885,4617.0
41.318554154,4682.0
41.335265423,4518.0
41.351976692,4587.0
41.368687961,4504.0
41.385399230,4646.0
41.402110499,4524.0
41.418821768,4661.0
41.435533037,4600.0
41.452244306,4615.0
41.468955575,4676.0
41.485666844,4634.0
41.502378113,4772.0
41.519089382,4857.0
41.535800651,4754.0
41.552511919,4721.0
41.569223188,4775.0
41.585934457,4963.0
41.602645726,5215.0
41.619356995,5420.0
41.636068264,5545.0
41.652779533,5529.0
41.669490802,5445.0
41.686202071,5431.0
41.702913340,5418.0
41.719624609,5466.0
41.736335878,5294.0
41.753047147,5526.0
41.769758416,5421.0
41.786469685,5497.0
41.803180954,5519.0
41.819892223,5356.0
41.836603492,5605.0
41.853314761,5345.0
41.870026030,5408.0
41.886737299,5489.0
41.903448568,5495.0
41.920159837,5508.0
41.936871106,5656.0
41.953582375,5546.0
41.970293644,5452.0
41.987004913,5496.0
42.003716182,5472.0
42.020427451,5522.0
42.037138720,5460.0
42.053849989,5595.0
42.070561258,5544.0
42.087272527,5517.0
42.103983796,5464.0
42.120695065,5550.0
42.137406334,5648.0
42.154117603,5638.0
42.170828872,5767.0
42.187540141,5779.0
42.204251410,5817.0
42.220962679,5818.0
42.237673948,5563.0
42.254385217,5722.0
42.271096486,5657.0
42.287807755,5779.0
42.304519024,5551.0
42.321230293,5743.0
42.337941562,5613.0
42.354652830,5661.0
42.371364099,5687.0
42.388075368,5571.0
42.404786637,5677.0
42.421497906,5748.0
42.438209175,5625.0
42.454920444,5750.0
42.471631713,5587.0
42.488342982,5792.0
42.505054251,5841.0
42.521765520,5819.0
42.538476789,5775.0
42.555188058,5836.0
42.571899327,5919.0
42.588610596,5837.0
42.605321865,6005.0
42.622033134,6082.0
42.638744403,6028.0
42.655455672,5936.0
42.672166941,6172.0
42.688878210,6422.0
42.705589479,6167.0
42.722300748,6472.0
42.739012017,6482.0
42.755723286,6806.0
42.772434555,7039.0
42.789145824,7373.0
42.805857093,7876.0
42.822568362,8503.0
42.839279631,9407.0
42.855990900,10389.0
42.872702169,11378.0
42.889413438,12254.0
42.906124707,13592.0
42.922835976,14765.0
42.939547245,16530.0
42.956258514,18084.0
42.972969783,19346.0
42.989681052,20862.0
43.006392321,23767.0
43.023103590,28216.0
43.039814859,36433.0
43.056526128,49111.0
43.073237397,70465.0
43.089948666,105710.0
43.106659935,166591.0
43.123371204,274352.0
43.140082473,421230.0
43.156793741,479440.0
43.173505010,348923.0
43.190216279,198236.0
43.206927548,128735.0
43.223638817,128718.0
43.240350086,174043.0
43.257061355,234699.0
43.273772624,237044.0
43.290483893,159310.0
43.307195162,84218.0
43.323906431,45015.0
43.340617700,29892.0
43.357328969,22860.0
43.374040238,18858.0
43.390751507,15497.0
43.407462776,13778.0
43.424174045,12629.0
43.440885314,11403.0
43.457596583,10656.0
43.474307852,9806.0
43.491019121,8889.0
43.507730390,8331.0
43.524441659,7817.0
43.541152928,7607.0
43.557864197,7387.0
43.574575466,7307.0
43.591286735,6834.0
43.607998004,6840.0
43.624709273,6685.0
43.641420542,6733.0
43.658131811,6260.0
43.674843080,6543.0
43.691554349,6259.0
43.708265618,6278.0
43.724976887,6263.0
43.741688156,6280.0
43.758399425,6078.0
43.775110694,6013.0
43.791821963,5981.0
43.808533232,5940.0
43.825244501,5890.0
43.841955770,5909.0
43.858667039,6078.0
43.875378308,5819.0
43.892089577,5873.0
43.908800846,5726.0
43.925512115,5618.0
43.942223384,5748.0
43.958934652,5641.0
43.975645921,5613.0
43.992357190,5609.0
44.009068459,5500.0
44.025779728,5620.0
44.042490997,5683.0
44.059202266,5539.0
44.075913535,5444.0
44.092624804,5546.0
44.109336073,5467.0
44.126047342,5530.0
44.142758611,5440.0
44.159469880,5398.0
44.176181149,5550.0
44.192892418,5434.0
44.209603687,5433.0
44.226314956,5244.0
44.243026225,5290.0
44.259737494,5382.0
44.276448763,5349.0
44.293160032,5383.0
44.309871301,5449.0
44.326582570,5192.0
44.343293839,5395.0
44.360005108,5279.0
44.376716377,5285.0
44.393427646,5225.0
44.410138915,5268.0
44.426850184,5289.0
44.443561453,5140.0
44.460272722,5227.0
44.476983991,5238.0
44.493695260,5249.0
44.510406529,5226.0
44.527117798,5233.0
44.543829067,5286.0
44.560540336,5286.0
44.577251605,5179.0
44.593962874,5198.0
44.610674143,5143.0
44.627385412,5162.0
44.644096681,5324.0
44.660807950,5158.0
44.677519219,5126.0
44.694230488,5095.0
44.710941757,5229.0
44.727653026,4961.0
44.744364295,5035.0
44.761075564,5261.0
44.777786832,5107.0
44.794498101,5219.0
44.811209370,5266.0
44.827920639,5080.0
44.844631908,5188.0
44.861343177,5070.0
44.878054446,5153.0
44.894765715,5162.0
44.911476984,5139.0
44.928188253,5114.0
44.944899522,5129.0
44.961610791,5165.0
44.978322060,5153.0
44.995033329,5136.0
45.011744598,5163.0
45.028455867,5141.0
45.045167136,5304.0
45.061878405,5247.0
45.078589674,5443.0
45.095300943,5550.0
45.112012212,5717.0
45.128723481,5801.0
45.145434750,5862.0
45.162146019,5754.0
45.178857288,5539.0
45.195568557,5312.0
45.212279826,5077.0
45.228991095,5150.0
45.245702364,5189.0
45.262413633,5135.0
45.279124902,5245.0
45.295836171,5153.0
45.312547440,5128.0
45.329258709,5208.0
45.345969978,5197.0
45.362681247,5090.0
45.379392516,5086.0
45.396103785,5069.0
45.412815054,4931.0
45.429526323,4947.0
45.446237592,4929.0
45.462948861,5116.0
45.479660130,4947.0
45.496371399,4968.0
45.513082668,4904.0
45.529793937,4980.0
45.546505206,4959.0
45.563216475,4923.0
45.579927743,4977.0
45.596639012,4974.0
45.613350281,5015.0
45.630061550,5054.0
45.646772819,4930.0
45.663484088,5077.0
45.680195357,4914.0
45.696906626,5004.0
45.713617895,4961.0
45.730329164,4944.0
45.747040433,4904.0
45.763751702,4916.0
45.780462971,5012.0
45.797174240,4972.0
45.813885509,4980.0
45.830596778,4911.0
45.847308047,4990.0
45.864019316,4876.0
45.880730585,4971.0
45.897441854,5047.0
45.914153123,4916.0
45.930864392,4916.0
45.947575661,4826.0
45.964286930,4916.0
45.980998199,4959.0
45.997709468,5050.0
46.014420737,4984.0
46.031132006,4869.0
46.047843275,4947.0
46.064554544,4874.0
46.081265813,4934.0
46.097977082,4860.0
46.114688351,4986.0
46.131399620,4890.0
46.148110889,4953.0
46.164822158,4868.0
46.181533427,4851.0
46.198244696,5027.0
46.214955965,4970.0
46.231667234,4944.0
46.248378503,4708.0
46.265089772,5011.0
46.281801041,4885.0
46.298512310,4942.0
46.315223579,4811.0
46.331934848,4774.0
46.348646117,4947.0
46.365357386,5005.0
46.382068654,4904.0
46.398779923,5024.0
46.415491192,5014.0
46.432202461,4957.0
46.448913730,4986.0
46.465624999,5104.0
46.482336268,5190.0
46.499047537,5115.0
46.515758806,5131.0
46.532470075,5100.0
46.549181344,5059.0
46.565892613,5063.0
46.582603882,4913.0
46.599315151,4985.0
46.616026420,5024.0
46.632737689,5167.0
46.649448958,5206.0
46.666160227,5139.0
46.682871496,4936.0
46.699582765,5056.0
46.716294034,4910.0
46.733005303,4845.0
46.749716572,5003.0
46.766427841,5030.0
46.783139110,4889.0
46.799850379,5014.0
46.816561648,4970.0
46.833272917,5005.0
46.849984186,5174.0
46.866695455,5507.0
46.883406724,5408.0
46.900117993,5465.0
46.916829262,5337.0
46.933540531,5192.0
46.950251800,5224.0
46.966963069,5203.0
46.983674338,5207.0
47.000385607,5060.0
47.017096876,5237.0
47.033808145,5122.0
47.050519414,5005.0
47.067230683,4853.0
47.083941952,4961.0
47.100653221,4827.0
47.117364490,4849.0
47.134075759,4831.0
47.150787028,4753.0
47.167498297,4781.0
47.184209565,4702.0
47.200920834,4807.0
47.217632103,4785.0
47.234343372,4787.0
47.251054641,4871.0
47.267765910,4883.0
47.284477179,4901.0
47.301188448,4766.0
47.317899717,4897.0
47.334610986,4710.0
47.351322255,4723.0
47.368033524,4899.0
47.384744793,4732.0
47.401456062,4604.0
47.418167331,4754.0
47.434878600,4672.0
47.451589869,4720.0
47.468301138,4749.0
47.485012407,4754.0
47.501723676,4630.0
47.518434945,4840.0
47.535146214,4740.0
47.551857483,4793.0
47.568568752,4830.0
47.585280021,4766.0
47.601991290,4777.0
47.618702559,4918.0
47.635413828,4698.0
47.652125097,4662.0
47.668836366,4831.0
47.685547635,4848.0
47.702258904,4769.0
47.718970173,4692.0
47.735681442,4725.0
47.752392711,4788.0
47.769103980,4686.0
47.785815249,4691.0
47.802526518,4841.0
47.819237787,4846.0
47.835949056,4866.0
47.852660325,4720.0
47.869371594,4702.0
47.886082863,4852.0
47.902794132,4730.0
47.919505401,4697.0
47.936216670,4706.0
47.952927939,4855.0
47.969639208,4581.0
47.986350477,4648.0
48.003061745,4826.0
48.019773014,4680.0
48.036484283,4799.0
48.053195552,4773.0
48.069906821,4795.0
48.086618090,4804.0
48.103329359,4722.0
48.120040628,4878.0
48.136751897,4806.0
48.153463166,4747.0
48.170174435,4821.0
48.186885704,4863.0
48.203596973,4820.0
48.220308242,4624.0
48.237019511,4792.0
48.253730780,4886.0
48.270442049,4815.0
48.287153318,4815.0
48.303864587,4725.0
48.320575856,4962.0
48.337287125,4941.0
48.353998394,4971.0
48.370709663,4768.0
48.387420932,4877.0
48.404132201,5014.0
48.420843470,5009.0
48.437554739,5170.0
48.454266008,5197.0
48.470977277,5325.0
48.487688546,5401.0
48.504399815,5368.0
48.521111084,5302.0
48.537822353,5421.0
48.554533622,5571.0
48.571244891,5380.0
48.587956160,5365.0
48.604667429,5303.0
48.621378698,5529.0
48.638089967,5190.0
48.654801236,5292.0
48.671512505,5316.0
48.688223774,5308.0
48.704935043,5448.0
48.721646312,5399.0
48.738357581,5255.0
48.755068850,5412.0
48.771780119,5306.0
48.788491388,5312.0
48.805202656,5414.0
48.821913925,5230.0
48.838625194,5462.0
48.855336463,5477.0
48.872047732,5458.0
48.888759001,5317.0
48.905470270,5501.0
48.922181539,5417.0
48.938892808,5519.0
48.955604077,5592.0
48.972315346,5429.0
48.989026615,5462.0
49.005737884,5433.0
49.022449153,5412.0
49.039160422,5435.0
49.055871691,5520.0
49.072582960,5554.0
49.089294229,5560.0
49.106005498,5507.0
49.122716767,5659.0
49.139428036,5589.0
49.156139305,5648.0
49.172850574,5680.0
49.189561843,5476.0
49.206273112,5593.0
49.222984381,5352.0
49.239695650,5578.0
49.256406919,5435.0
49.273118188,5351.0
49.289829457,5462.0
49.306540726,5426.0
49.323251995,5538.0
49.339963264,5517.0
49.356674533,5524.0
49.373385802,5513.0
49.390097071,5566.0
49.406808340,5743.0
49.423519609,5573.0
49.440230878,5584.0
49.456942147,5652.0
49.473653416,5443.0
49.490364685,5641.0
49.507075954,5538.0
49.523787223,5679.0
49.540498492,5732.0
49.557209761,5644.0
49.573921030,5702.0
49.590632299,5764.0
49.607343567,5616.0
49.624054836,5704.0
49.640766105,5879.0
49.657477374,5691.0
49.674188643,5763.0
49.690899912,5794.0
49.707611181,5883.0
49.724322450,6023.0
49.741033719,5986.0
49.757744988,5986.0
49.774456257,6138.0
49.791167526,6239.0
49.807878795,6281.0
49.824590064,6372.0
49.841301333,6366.0
49.858012602,6626.0
49.874723871,6761.0
49.891435140,6962.0
49.908146409,7187.0
49.924857678,7581.0
49.941568947,8066.0
49.958280216,8798.0
49.974991485,9699.0
49.991702754,10668.0
50.008414023,12013.0
50.025125292,13070.0
50.041836561,14065.0
50.058547830,15056.0
50.075259099,15711.0
50.091970368,16554.0
50.108681637,17699.0
50.125392906,19679.0
50.142104175,22549.0
50.158815444,27245.0
50.175526713,34420.0
50.192237982,46044.0
50.208949251,66297.0
50.225660520,99524.0
50.242371789,152258.0
50.259083058,233245.0
50.275794327,330588.0
50.292505596,365312.0
50.309216865,293467.0
50.325928134,189058.0
50.342639403,121720.0
50.359350672,98607.0
50.376061941,105221.0
50.392773210,135055.0
50.409484478,174308.0
50.426195747,189841.0
50.442907016,154564.0
50.459618285,99984.0
50.476329554,59892.0
50.493040823,37987.0
50.509752092,26586.0
50.526463361,20406.0
50.543174630,16911.0
50.559885899,14829.0
50.576597168,13148.0
50.593308437,11679.0
50.610019706,10738.0
50.626730975,9823.0
50.643442244,9044.0
50.660153513,8568.0
50.676864782,7990.0
50.693576051,7545.0
50.710287320,7552.0
50.726998589,7115.0
50.743709858,6790.0
50.760421127,6725.0
50.777132396,6566.0
50.793843665,6346.0
50.810554934,6390.0
50.827266203,6336.0
50.843977472,6128.0
50.860688741,6086.0
50.877400010,5957.0
50.894111279,5989.0
50.910822548,5919.0
50.927533817,5909.0
50.944245086,5811.0
50.960956355,5840.0
50.977667624,5588.0
50.994378893,5640.0
51.011090162,5669.0
51.027801431,5490.0
51.044512700,5578.0
51.061223969,5587.0
51.077935238,5408.0
51.094646507,5667.0
51.111357776,5600.0
51.128069045,5483.0
51.144780314,5283.0
51.161491583,5583.0
51.178202852,5302.0
51.194914121,5445.0
51.211625390,5333.0
51.228336658,5420.0
51.245047927,5275.0
51.261759196,5464.0
51.278470465,5289.0
51.295181734,5233.0
51.311893003,5277.0
51.328604272,5200.0
51.345315541,5314.0
51.362026810,5244.0
51.378738079,5141.0
51.395449348,5089.0
51.412160617,5268.0
51.428871886,5009.0
51.445583155,5154.0
51.462294424,5139.0
51.479005693,5156.0
51.495716962,5174.0
51.512428231,5144.0
51.529139500,4996.0
51.545850769,5172.0
51.562562038,5107.0
51.579273307,5150.0
51.595984576,4980.0
51.612695845,5159.0
51.629407114,5061.0
51.646118383,5221.0
51.662829652,4983.0
51.679540921,5005.0
51.696252190,5114.0
51.712963459,5034.0
51.729674728,5059.0
51.746385997,5037.0
51.763097266,4988.0
51.779808535,4913.0
51.796519804,4803.0
51.813231073,4965.0
51.829942342,5019.0
51.846653611,4990.0
51.863364880,5122.0
51.880076149,4932.0
51.896787418,5047.0
51.913498687,4998.0
51.930209956,4927.0
51.946921225,5018.0
51.963632494,5029.0
51.980343763,5014.0
51.997055032,4762.0
52.013766301,4993.0
52.030477569,4831.0
52.047188838,4968.0
52.063900107,5015.0
52.080611376,4949.0
52.097322645,5001.0
52.114033914,4969.0
52.130745183,4809.0
52.147456452,5029.0
52.164167721,4927.0
52.180878990,4875.0
52.197590259,4953.0
52.214301528,4993.0
52.231012797,4842.0
52.247724066,4797.0
52.264435335,4934.0
52.281146604,4907.0
52.297857873,4720.0
52.314569142,4965.0
52.331280411,4914.0
52.347991680,4852.0
52.364702949,4929.0
52.381414218,4795.0
52.398125487,4829.0
52.414836756,4769.0
52.431548025,4810.0
52.448259294,4891.0
52.464970563,5004.0
52.481681832,4709.0
52.498393101,4876.0
52.515104370,4828.0
52.531815639,4862.0
52.548526908,4733.0
52.565238177,4844.0
52.581949446,4889.0
52.598660715,4581.0
52.615371984,4754.0
52.632083253,4741.0
52.648794522,4911.0
52.665505791,4763.0
52.682217060,4885.0
52.698928329,4869.0
52.715639598,4724.0
52.732350867,4828.0
52.749062136,4780.0
52.765773405,4936.0
52.782484674,4764.0
52.799195943,4969.0
52.815907212,4755.0
52.832618480,4961.0
52.849329749,4847.0
52.866041018,4770.0
52.882752287,4918.0
52.899463556,4917.0
52.916174825,4753.0
52.932886094,4866.0
52.949597363,4664.0
52.966308632,4773.0
52.983019901,4695.0
52.999731170,4808.0
53.016442439,4743.0
53.033153708,4795.0
53.049864977,4563.0
53.066576246,4620.0
53.083287515,4884.0
53.099998784,4768.0
53.116710053,4813.0
53.133421322,4840.0
53.150132591,4667.0
53.166843860,4862.0
53.183555129,4762.0
53.200266398,4621.0
53.216977667,4755.0
53.233688936,4816.0
53.250400205,4836.0
53.267111474,4715.0
53.283822743,4742.0
53.300534012,4798.0
53.317245281,4761.0
53.333956550,4822.0
53.350667819,4730.0
53.367379088,4767.0
53.384090357,4795.0
53.400801626,4851.0
53.417512895,4767.0
53.434224164,4638.0
53.450935433,4799.0
53.467646702,4784.0
53.484357971,4745.0
53.501069240,4694.0
53.517780509,4625.0
53.534491778,4672.0
53.551203047,4696.0
53.567914316,4710.0
53.584625585,4714.0
53.601336854,4747.0
53.618048123,4757.0
53.634759391,4698.0
53.651470660,4578.0
53.668181929,4795.0
53.684893198,4650.0
53.701604467,4579.0
53.718315736,4697.0
53.735027005,4688.0
53.751738274,4690.0
53.768449543,4769.0
53.785160812,4747.0
53.801872081,4764.0
53.818583350,4584.0
53.835294619,4620.0
53.852005888,4643.0
53.868717157,4559.0
53.885428426,4588.0
53.902139695,4667.0
53.918850964,4628.0
53.935562233,4652.0
53.952273502,4749.0
53.968984771,4798.0
53.985696040,4762.0
54.002407309,4808.0
54.019118578,4666.0
54.035829847,4700.0
54.052541116,4640.0
54.069252385,4627.0
54.085963654,4711.0
54.102674923,4646.0
54.119386192,4690.0
54.136097461,4657.0
54.152808730,4744.0
54.169519999,4747.0
54.186231268,4606.0
54.202942537,4688.0
54.219653806,4695.0
54.236365075,4670.0
54.253076344,4727.0
54.269787613,4770.0
54.286498882,4653.0
54.303210151,4695.0
54.319921420,4668.0
54.336632689,4808.0
54.353343958,4725.0
54.370055227,4832.0
54.386766496,4748.0
54.403477765,4691.0
54.420189034,4900.0
54.436900303,4786.0
54.453611571,4818.0
54.470322840,4775.0
54.487034109,4796.0
54.503745378,4733.0
54.520456647,4653.0
54.537167916,4707.0
54.553879185,4680.0
54.570590454,4713.0
54.587301723,4816.0
54.604012992,4916.0
54.620724261,4790.0
54.637435530,4901.0
54.654146799,4847.0
54.670858068,5083.0
54.687569337,5295.0
54.704280606,5193.0
54.720991875,5110.0
54.737703144,5100.0
54.754414413,4875.0
54.771125682,4939.0
54.787836951,4949.0
54.804548220,4936.0
54.821259489,4825.0
54.837970758,5075.0
54.854682027,4756.0
54.871393296,4793.0
54.888104565,4610.0
54.904815834,4815.0
54.921527103,4676.0
54.938238372,4642.0
54.954949641,4698.0
54.971660910,4629.0
54.988372179,4640.0
55.005083448,4494.0
55.021794717,4520.0
55.038505986,4615.0
55.055217255,4611.0
55.071928524,4565.0
55.088639793,4597.0
55.105351062,4636.0
55.122062331,4647.0
55.138773600,4662.0
55.155484869,4578.0
55.172196138,4599.0
55.188907407,4728.0
55.205618676,4541.0
55.222329945,4599.0
55.239041214,4659.0
55.255752482,4580.0
55.272463751,4692.0
55.289175020,4634.0
55.305886289,4617.0
55.322597558,4653.0
55.339308827,4738.0
55.356020096,4685.0
55.372731365,4580.0
55.389442634,4407.0
55.406153903,4621.0
55.422865172,4558.0
55.439576441,4532.0
55.456287710,4543.0
55.472998979,4569.0
55.489710248,4486.0
55.506421517,4578.0
55.523132786,4538.0
55.539844055,4578.0
55.556555324,4630.0
55.573266593,4574.0
55.589977862,4636.0
55.606689131,4583.0
55.623400400,4665.0
55.640111669,4670.0
55.656822938,4560.0
55.673534207,4595.0
55.690245476,4677.0
55.706956745,4595.0
55.723668014,4566.0
55.740379283,4607.0
55.757090552,4608.0
55.773801821,4607.0
55.790513090,4469.0
55.807224359,4483.0
55.823935628,4572.0
55.840646897,4532.0
55.857358166,4379.0
55.874069435,4515.0
55.890780704,4458.0
55.907491973,4459.0
55.924203242,4528.0
55.940914511,4515.0
55.957625780,4495.0
55.974337049,4433.0
55.991048318,4573.0
56.007759587,4488.0
56.024470856,4537.0
56.041182125,4519.0
56.057893393,4575.0
56.074604662,4522.0
56.091315931,4671.0
56.108027200,4466.0
56.124738469,4443.0
56.141449738,4470.0
56.158161007,4609.0
56.174872276,4542.0
56.191583545,4504.0
56.208294814,4465.0
56.225006083,4464.0
56.241717352,4524.0
56.258428621,4466.0
56.275139890,4563.0
56.291851159,4440.0
56.308562428,4601.0
56.325273697,4487.0
56.341984966,4506.0
56.358696235,4487.0
56.375407504,4602.0
56.392118773,4384.0
56.408830042,4505.0
56.425541311,4578.0
56.442252580,4547.0
56.458963849,4534.0
56.475675118,4401.0
56.492386387,4520.0
56.509097656,4508.0
56.525808925,4508.0
56.542520194,4496.0
56.559231463,4565.0
56.575942732,4458.0
56.592654001,4470.0
56.609365270,4501.0
56.626076539,4534.0
56.642787808,4643.0
56.659499077,4546.0
56.676210346,4449.0
56.692921615,4524.0
56.709632884,4339.0
56.726344153,4509.0
56.743055422,4471.0
56.759766691,4608.0
56.776477960,4541.0
56.793189229,4503.0
56.809900498,4489.0
56.826611767,4466.0
56.843323036,4430.0
56.860034304,4505.0
56.876745573,4481.0
56.893456842,4630.0
56.910168111,4606.0
56.926879380,4633.0
56.943590649,4328.0
56.960301918,4504.0
56.977013187,4512.0
56.993724456,4502.0
57.010435725,4485.0
57.027146994,4533.0
57.043858263,4502.0
57.060569532,4543.0
57.077280801,4412.0
57.093992070,4579.0
57.110703339,4523.0
57.127414608,4509.0
57.144125877,4543.0
57.160837146,4549.0
57.177548415,4501.0
57.194259684,4441.0
57.210970953,4513.0
57.227682222,4476.0
57.244393491,4495.0
57.261104760,4426.0
57.277816029,4469.0
57.294527298,4639.0
57.311238567,4576.0
57.327949836,4459.0
57.344661105,4510.0
57.361372374,4511.0
57.378083643,4503.0
57.394794912,4531.0
57.411506181,4612.0
57.428217450,4557.0
57.444928719,4533.0
57.461639988,4486.0
57.478351257,4478.0
57.495062526,4527.0
57.511773795,4422.0
57.528485064,4432.0
57.545196333,4507.0
57.561907602,4427.0
57.578618871,4519.0
57.595330140,4433.0
57.612041409,4476.0
57.628752678,4529.0
57.645463947,4485.0
57.662175216,4524.0
57.678886484,4477.0
57.695597753,4514.0
57.712309022,4370.0
57.729020291,4487.0
57.745731560,4371.0
57.762442829,4547.0
57.779154098,4465.0
57.795865367,4397.0
57.812576636,4477.0
57.829287905,4472.0
57.845999174,4392.0
57.862710443,4401.0
57.879421712,4439.0
57.896132981,4469.0
57.912844250,4442.0
57.929555519,4466.0
57.946266788,4397.0
57.962978057,4423.0
57.979689326,4418.0
57.996400595,4320.0
58.013111864,4485.0
58.029823133,4426.0
58.046534402,4488.0
58.063245671,4557.0
58.079956940,4443.0
58.096668209,4581.0
58.113379478,4325.0
58.130090747,4512.0
58.146802016,4408.0
58.163513285,4532.0
58.180224554,4524.0
58.196935823,4518.0
58.213647092,4549.0
58.230358361,4447.0
58.247069630,4522.0
58.263780899,4430.0
58.280492168,4454.0
58.297203437,4437.0
58.313914706,4486.0
58.330625975,4367.0
58.347337244,4498.0
58.364048513,4450.0
58.380759782,4464.0
58.397471051,4354.0
58.414182320,4484.0
58.430893589,4411.0
58.447604858,4459.0
58.464316127,4462.0
58.481027395,4682.0
58.497738664,4483.0
58.514449933,4487.0
58.531161202,4340.0
58.547872471,4377.0
58.564583740,4448.0
58.581295009,4494.0
58.598006278,4490.0
58.614717547,4340.0
58.631428816,4501.0
58.648140085,4459.0
58.664851354,4411.0
58.681562623,4380.0
58.698273892,4437.0
58.714985161,4454.0
58.731696430,4438.0
58.748407699,4423.0
58.765118968,4521.0
58.781830237,4304.0
58.798541506,4465.0
58.815252775,4476.0
58.831964044,4494.0
58.848675313,4433.0
58.865386582,4537.0
58.882097851,4466.0
58.898809120,4454.0
58.915520389,4443.0
58.932231658,4436.0
58.948942927,4498.0
58.965654196,4476.0
58.982365465,4507.0
58.999076734,4388.0
59.015788003,4424.0
59.032499272,4440.0
59.049210541,4372.0
59.065921810,4442.0
59.082633079,4518.0
59.099344348,4513.0
59.116055617,4482.0
59.132766886,4408.0
59.149478155,4419.0
59.166189424,4471.0
59.182900693,4485.0
59.199611962,4398.0
59.216323231,4442.0
59.233034500,4493.0
59.249745769,4385.0
59.266457038,4420.0
59.283168306,4423.0
59.299879575,4252.0
59.316590844,4402.0
59.333302113,4333.0
59.350013382,4530.0
59.366724651,4398.0
59.383435920,4534.0
59.400147189,4505.0
59.416858458,4409.0
59.433569727,4449.0
59.450280996,4329.0
59.466992265,4503.0
59.483703534,4452.0
59.500414803,4586.0
59.517126072,4324.0
59.533837341,4511.0
59.550548610,4449.0
59.567259879,4396.0
59.583971148,4552.0
59.600682417,4474.0
59.617393686,4434.0
59.634104955,4425.0
59.650816224,4340.0
59.667527493,4374.0
59.684238762,4375.0
59.700950031,4400.0
59.717661300,4343.0
59.734372569,4419.0
59.751083838,4436.0
59.767795107,4579.0
59.784506376,4398.0
59.801217645,4534.0
59.817928914,4375.0
59.834640183,4411.0
59.851351452,4358.0
59.868062721,4507.0
59.884773990,4448.0
59.901485259,4437.0
59.918196528,4336.0
59.934907797,4465.0
59.951619066,4524.0
59.968330335,4357.0
59.985041604,4345.0
60.001752873,4534.0
60.018464142,4377.0
60.035175411,4301.0
60.051886680,4478.0
60.068597949,4280.0
60.085309217,4493.0
60.102020486,4372.0
60.118731755,4372.0
60.135443024,4515.0
60.152154293,4240.0
60.168865562,4456.0
60.185576831,4464.0
60.202288100,4488.0
60.218999369,4418.0
60.235710638,4404.0
60.252421907,4373.0
60.269133176,4392.0
60.285844445,4448.0
60.302555714,4396.0
60.319266983,4467.0
60.335978252,4472.0
60.352689521,4500.0
60.369400790,4424.0
60.386112059,4605.0
60.402823328,4499.0
60.419534597,4425.0
60.436245866,4495.0
60.452957135,4428.0
60.469668404,4370.0
60.486379673,4461.0
60.503090942,4351.0
60.519802211,4416.0
60.536513480,4435.0
60.553224749,4360.0
60.569936018,4298.0
60.586647287,4401.0
60.603358556,4345.0
60.620069825,4350.0
60.636781094,4382.0
60.653492363,4401.0
60.670203632,4510.0
60.686914901,4320.0
60.703626170,4352.0
60.720337439,4419.0
60.737048708,4483.0
60.753759977,4394.0
60.770471246,4447.0
60.787182515,4386.0
60.803893784,4503.0
60.820605053,4468.0
60.837316322,4351.0
60.854027591,4460.0
60.870738860,4351.0
60.887450129,4332.0
60.904161397,4515.0
60.920872666,4433.0
60.937583935,4404.0
60.954295204,4470.0
60.971006473,4501.0
60.987717742,4404.0
61.004429011,4367.0
61.021140280,4419.0
61.037851549,4435.0
61.054562818,4585.0
61.071274087,4372.0
61.087985356,4338.0
61.104696625,4291.0
61.121407894,4490.0
61.138119163,4318.0
61.154830432,4437.0
61.171541701,4519.0
61.188252970,4394.0
61.204964239,4423.0
61.221675508,4441.0
61.238386777,4325.0
61.255098046,4592.0
61.271809315,4490.0
61.288520584,4321.0
61.305231853,4477.0
61.321943122,4357.0
61.338654391,4307.0
61.355365660,4425.0
61.372076929,4369.0
61.388788198,4428.0
61.405499467,4387.0
61.422210736,4422.0
61.438922005,4391.0
61.455633274,4435.0
61.472344543,4420.0
61.489055812,4362.0
61.505767081,4415.0
61.522478350,4346.0
61.539189619,4297.0
61.555900888,4375.0
61.572612157,4321.0
61.589323426,4385.0
61.606034695,4417.0
61.622745964,4309.0
61.639457233,4443.0
61.656168502,4343.0
61.672879771,4412.0
61.689591040,4249.0
61.706302308,4303.0
61.723013577,4336.0
61.739724846,4364.0
61.756436115,4457.0
61.773147384,4398.0
61.789858653,4366.0
61.806569922,4374.0
61.823281191,4312.0
61.839992460,4450.0
61.856703729,4304.0
61.873414998,4371.0
61.890126267,4353.0
61.906837536,4363.0
61.923548805,4394.0
61.940260074,4352.0
61.956971343,4471.0
61.973682612,4453.0
61.990393881,4485.0
62.007105150,4173.0
62.023816419,4397.0
62.040527688,4463.0
62.057238957,4382.0
62.073950226,4361.0
62.090661495,4431.0
62.107372764,4531.0
62.124084033,4376.0
62.140795302,4468.0
62.157506571,4412.0
62.174217840,4349.0
62.190929109,4217.0
62.207640378,4302.0
62.224351647,4409.0
62.241062916,4358.0
62.257774185,4467.0
62.274485454,4361.0
62.291196723,4363.0
62.307907992,4366.0
62.324619261,4443.0
62.341330530,4376.0
62.358041799,4390.0
62.374753068,4360.0
62.391464337,4238.0
62.408175606,4404.0
62.424886875,4423.0
62.441598144,4336.0
62.458309413,4414.0
62.475020682,4291.0
62.491731951,4280.0
62.508443219,4357.0
62.525154488,4453.0
62.541865757,4299.0
62.558577026,4369.0
62.575288295,4401.0
62.591999564,4404.0
62.608710833,4517.0
62.625422102,4303.0
62.642133371,4416.0
62.658844640,4306.0
62.675555909,4239.0
62.692267178,4347.0
62.708978447,4431.0
62.725689716,4406.0
62.742400985,4359.0
62.759112254,4330.0
62.775823523,4315.0
62.792534792,4257.0
62.809246061,4469.0
62.825957330,4387.0
62.842668599,4420.0
62.859379868,4400.0
62.876091137,4408.0
62.892802406,4450.0
62.909513675,4408.0
62.926224944,4417.0
62.942936213,4376.0
62.959647482,4455.0
62.976358751,4346.0
62.993070020,4405.0
63.009781289,4481.0
63.026492558,4387.0
63.043203827,4300.0
63.059915096,4443.0
63.076626365,4376.0
63.093337634,4330.0
63.110048903,4459.0
63.126760172,4408.0
63.143471441,4334.0
63.160182710,4336.0
63.176893979,4318.0
63.193605248,4482.0
63.210316517,4363.0
63.227027786,4477.0
63.243739055,4368.0
63.260450324,4433.0
63.277161593,4475.0
63.293872862,4298.0
63.310584130,4467.0
63.327295399,4293.0
63.344006668,4382.0
63.360717937,4484.0
63.377429206,4362.0
63.394140475,4254.0
63.410851744,4247.0
63.427563013,4541.0
63.444274282,4249.0
63.460985551,4316.0
63.477696820,4306.0
63.494408089,4407.0
63.511119358,4383.0
63.527830627,4313.0
63.544541896,4445.0
63.561253165,4412.0
63.577964434,4380.0
63.594675703,4399.0
63.611386972,4390.0
63.628098241,4428.0
63.644809510,4345.0
63.661520779,4463.0
63.678232048,4395.0
63.694943317,4413.0
63.711654586,4420.0
63.728365855,4454.0
63.745077124,4395.0
63.761788393,4423.0
63.778499662,4303.0
63.795210931,4398.0
63.811922200,4459.0
63.828633469,4324.0
63.845344738,4380.0
63.862056007,4456.0
63.878767276,4334.0
63.895478545,4347.0
63.912189814,4491.0
63.928901083,4333.0
63.945612352,4404.0
63.962323621,4345.0
63.979034890,4350.0
63.995746159,4333.0
64.012457428,4313.0
64.029168697,4326.0
64.045879966,4364.0
64.062591235,4415.0
64.079302504,4471.0
64.096013773,4383.0
64.112725041,4434.0
64.129436310,4361.0
64.146147579,4236.0
64.162858848,4431.0
64.179570117,4414.0
64.196281386,4420.0
64.212992655,4353.0
64.229703924,4293.0
64.246415193,4540.0
64.263126462,4379.0
64.279837731,4343.0
64.296549000,4245.0
64.313260269,4356.0
64.329971538,4479.0
64.346682807,4327.0
64.363394076,4400.0
64.380105345,4416.0
64.396816614,4419.0
64.413527883,4286.0
64.430239152,4354.0
64.446950421,4374.0
64.463661690,4385.0
64.480372959,4330.0
64.497084228,4346.0
64.513795497,4331.0
64.530506766,4435.0
64.547218035,4300.0
64.563929304,4375.0
64.580640573,4283.0
64.597351842,4465.0
64.614063111,4439.0
64.630774380,4311.0
64.647485649,4256.0
64.664196918,4478.0
64.680908187,4309.0
64.697619456,4483.0
64.714330725,4389.0
64.731041994,4350.0
64.747753263,4268.0
64.764464532,4362.0
64.781175801,4415.0
64.797887070,4454.0
64.814598339,4374.0
64.831309608,4380.0
64.848020877,4314.0
64.864732146,4389.0
64.881443415,4270.0
64.898154684,4402.0
64.914865953,4362.0
64.931577221,4401.0
64.948288490,4367.0
64.964999759,4387.0
64.981711028,4427.0
64.998422297,4354.0
65.015133566,4488.0
65.031844835,4433.0
65.048556104,4396.0
65.065267373,4551.0
65.081978642,4311.0
65.098689911,4388.0
65.115401180,4393.0
65.132112449,4388.0
65.148823718,4376.0
65.165534987,4367.0
65.182246256,4385.0
65.198957525,4388.0
65.215668794,4403.0
65.232380063,4300.0
65.249091332,4305.0
65.265802601,4295.0
65.282513870,4375.0
65.299225139,4462.0
65.315936408,4289.0
65.332647677,4268.0
65.349358946,4363.0
65.366070215,4392.0
65.382781484,4368.0
65.399492753,4394.0
65.416204022,4367.0
65.432915291,4408.0
65.449626560,4431.0
65.466337829,4404.0
65.483049098,4318.0
65.499760367,4437.0
65.516471636,4277.0
65.533182905,4278.0
65.549894174,4312.0
65.566605443,4315.0
65.583316712,4426.0
65.600027981,4402.0
65.616739250,4348.0
65.633450519,4418.0
65.650161788,4395.0
65.666873057,4403.0
65.683584326,4475.0
65.700295595,4382.0
65.717006864,4533.0
65.733718132,4380.0
65.750429401,4380.0
65.767140670,4506.0
65.783851939,4381.0
65.800563208,4445.0
65.817274477,4538.0
65.833985746,4548.0
65.850697015,4527.0
65.867408284,4496.0
65.884119553,4338.0
65.900830822,4444.0
65.917542091,4308.0
65.934253360,4406.0
65.950964629,4301.0
65.967675898,4440.0
65.984387167,4361.0
66.001098436,4326.0
66.017809705,4462.0
66.034520974,4428.0
66.051232243,4376.0
66.067943512,4349.0
66.084654781,4473.0
66.101366050,4509.0
66.118077319,4488.0
66.134788588,4399.0
66.151499857,4319.0
66.168211126,4392.0
66.184922395,4502.0
66.201633664,4452.0
66.218344933,4383.0
66.235056202,4310.0
66.251767471,4339.0
66.268478740,4336.0
66.285190009,4400.0
66.301901278,4333.0
66.318612547,4428.0
66.335323816,4400.0
66.352035085,4427.0
66.368746354,4475.0
66.385457623,4397.0
66.402168892,4325.0
66.418880161,4292.0
66.435591430,4375.0
66.452302699,4461.0
66.469013968,4222.0
66.485725237,4345.0
66.502436506,4304.0
66.519147775,4398.0
66.535859043,4491.0
66.552570312,4370.0
66.569281581,4320.0
66.585992850,4352.0
66.602704119,4324.0
66.619415388,4437.0
66.636126657,4333.0
66.652837926,4296.0
66.669549195,4364.0
66.686260464,4460.0
66.702971733,4435.0
66.719683002,4252.0
66.736394271,4317.0
66.753105540,4438.0
66.769816809,4349.0
66.786528078,4291.0
66.803239347,4342.0
66.819950616,4274.0
66.836661885,4183.0
66.853373154,4564.0
66.870084423,4391.0
66.886795692,4369.0
66.903506961,4408.0
66.920218230,4407.0
66.936929499,4157.0
66.953640768,4250.0
66.970352037,4427.0
66.987063306,4426.0
67.003774575,4436.0
67.020485844,4296.0
67.037197113,4300.0
67.053908382,4329.0
67.070619651,4375.0
67.087330920,4365.0
67.104042189,4286.0
67.120753458,4314.0
67.137464727,4354.0
67.154175996,4431.0
67.170887265,4335.0
67.187598534,4328.0
67.204309803,4373.0
67.221021072,4359.0
67.237732341,4452.0
67.254443610,4430.0
67.271154879,4459.0
67.287866148,4382.0
67.304577417,4412.0
67.321288686,4336.0
67.337999954,4217.0
67.354711223,4439.0
67.371422492,4359.0
67.388133761,4325.0
67.404845030,4454.0
67.421556299,4534.0
67.438267568,4412.0
67.454978837,4335.0
67.471690106,4249.0
67.488401375,4322.0
67.505112644,4285.0
67.521823913,4348.0
67.538535182,4249.0
67.555246451,4369.0
67.571957720,4393.0
67.588668989,4440.0
67.605380258,4425.0
67.622091527,4402.0
67.638802796,4317.0
67.655514065,4360.0
67.672225334,4429.0
67.688936603,4396.0
67.705647872,4318.0
67.722359141,4458.0
67.739070410,4164.0
67.755781679,4304.0
67.772492948,4216.0
67.789204217,4379.0
67.805915486,4445.0
67.822626755,4426.0
67.839338024,4319.0
67.856049293,4441.0
67.872760562,4394.0
67.889471831,4421.0
67.906183100,4484.0
67.922894369,4561.0
67.939605638,4442.0
67.956316907,4622.0
67.973028176,4690.0
67.989739445,4590.0
68.006450714,4675.0
68.023161983,4777.0
68.039873252,4635.0
68.056584521,4587.0
68.073295790,4563.0
68.090007059,4608.0
68.106718328,4456.0
68.123429597,4338.0
68.140140866,4436.0
68.156852134,4527.0
68.173563403,4390.0
68.190274672,4489.0
68.206985941,4497.0
68.223697210,4424.0
68.240408479,4532.0
68.257119748,4518.0
68.273831017,4324.0
68.290542286,4342.0
68.307253555,4388.0
68.323964824,4305.0
68.340676093,4410.0
68.357387362,4474.0
68.374098631,4346.0
68.390809900,4254.0
68.407521169,4311.0
68.424232438,4296.0
68.440943707,4326.0
68.457654976,4363.0
68.474366245,4514.0
68.491077514,4280.0
68.507788783,4314.0
68.524500052,4396.0
68.541211321,4291.0
68.557922590,4341.0
68.574633859,4392.0
68.591345128,4428.0
68.608056397,4358.0
68.624767666,4364.0
68.641478935,4263.0
68.658190204,4298.0
68.674901473,4310.0
68.691612742,4356.0
68.708324011,4339.0
68.725035280,4262.0
68.741746549,4383.0
68.758457818,4291.0
68.775169087,4313.0
68.791880356,4335.0
68.808591625,4308.0
68.825302894,4346.0
68.842014163,4223.0
68.858725432,4353.0
68.875436701,4398.0
68.892147970,4407.0
68.908859239,4305.0
68.925570508,4294.0
68.942281777,4445.0
68.958993045,4327.0
68.975704314,4330.0
68.992415583,4403.0
69.009126852,4213.0
69.025838121,4356.0
69.042549390,4377.0
69.059260659,4296.0
69.075971928,4277.0
69.092683197,4378.0
69.109394466,4327.0
69.126105735,4371.0
69.142817004,4375.0
69.159528273,4299.0
69.176239542,4392.0
69.192950811,4384.0
69.209662080,4324.0
69.226373349,4303.0
69.243084618,4284.0
69.259795887,4332.0
69.276507156,4463.0
69.293218425,4293.0
69.309929694,4361.0
69.326640963,4277.0
69.343352232,4335.0
69.360063501,4387.0
69.376774770,4347.0
69.393486039,4275.0
69.410197308,4497.0
69.426908577,4339.0
69.443619846,4346.0
69.460331115,4383.0
69.477042384,4352.0
69.493753653,4334.0
69.510464922,4395.0
69.527176191,4386.0
69.543887460,4411.0
69.560598729,4369.0
69.577309998,4365.0
69.594021267,4446.0
69.610732536,4244.0
69.627443805,4233.0
69.644155074,4272.0
69.660866343,4488.0
69.677577612,4420.0
69.694288881,4354.0
69.711000150,4352.0
69.727711419,4265.0
69.744422688,4337.0
69.761133956,4434.0
69.777845225,4324.0
69.794556494,4425.0
69.811267763,4426.0
69.827979032,4306.0
69.844690301,4435.0
69.861401570,4285.0
69.878112839,4300.0
69.894824108,4282.0
69.911535377,4334.0
69.928246646,4296.0
69.944957915,4484.0
69.961669184,4493.0
69.978380453,4272.0
69.995091722,4420.0
70.011802991,4330.0
70.028514260,4446.0
70.045225529,4441.0
70.061936798,4366.0
70.078648067,4285.0
70.095359336,4351.0
70.112070605,4420.0
70.128781874,4358.0
70.145493143,4376.0
70.162204412,4297.0
70.178915681,4310.0
70.195626950,4402.0
70.212338219,4283.0
70.229049488,4414.0
70.245760757,4310.0
70.262472026,4331.0
70.279183295,4368.0
70.295894564,4491.0
70.312605833,4286.0
70.329317102,4275.0
70.346028371,4350.0
70.362739640,4326.0
70.379450909,4350.0
70.396162178,4411.0
70.412873447,4323.0
70.429584716,4480.0
70.446295985,4248.0
70.463007254,4251.0
70.479718523,4347.0
70.496429792,4404.0
70.513141061,4368.0
70.529852330,4375.0
70.546563599,4402.0
70.563274867,4413.0
70.579986136,4400.0
70.596697405,4333.0
70.613408674,4381.0
70.630119943,4315.0
70.646831212,4396.0
70.663542481,4333.0
70.680253750,4524.0
70.696965019,4406.0
70.713676288,4435.0
70.730387557,4332.0
70.747098826,4256.0
70.763810095,4446.0
70.780521364,4190.0
70.797232633,4368.0
70.813943902,4457.0
70.830655171,4436.0
70.847366440,4370.0
70.864077709,4332.0
70.880788978,4304.0
70.897500247,4344.0
70.914211516,4370.0
70.930922785,4329.0
70.947634054,4458.0
70.964345323,4449.0
70.981056592,4363.0
70.997767861,4508.0
71.014479130,4278.0
71.031190399,4409.0
71.047901668,4419.0
71.064612937,4459.0
71.081324206,4463.0
71.098035475,4476.0
71.114746744,4484.0
71.131458013,4422.0
71.148169282,4466.0
71.164880551,4404.0
71.181591820,4423.0
71.198303089,4360.0
71.215014358,4508.0
71.231725627,4448.0
71.248436896,4462.0
71.265148165,4554.0
71.281859434,4422.0
71.298570703,4431.0
71.315281972,4500.0
71.331993241,4509.0
71.348704510,4403.0
71.365415779,4364.0
71.382127047,4465.0
71.398838316,4531.0
71.415549585,4520.0
71.432260854,4394.0
71.448972123,4434.0
71.465683392,4485.0
71.482394661,4392.0
71.499105930,4480.0
71.515817199,4406.0
71.532528468,4466.0
71.549239737,4331.0
71.565951006,4595.0
71.582662275,4411.0
71.599373544,4426.0
71.616084813,4408.0
71.632796082,4380.0
71.649507351,4458.0
71.666218620,4627.0
71.682929889,4475.0
71.699641158,4455.0
71.716352427,4519.0
71.733063696,4324.0
71.749774965,4491.0
71.766486234,4501.0
71.783197503,4463.0
71.799908772,4363.0
71.816620041,4440.0
71.833331310,4444.0
71.850042579,4533.0
71.866753848,4432.0
71.883465117,4490.0
71.900176386,4476.0
71.916887655,4514.0
71.933598924,4417.0
71.950310193,4445.0
71.967021462,4454.0
71.983732731,4514.0
72.000444000,4409.0
72.017155269,4509.0
72.033866538,4534.0
72.050577807,4483.0
72.067289076,4418.0
72.084000345,4529.0
72.100711614,4491.0
72.117422883,4455.0
72.134134152,4456.0
72.150845421,4468.0
72.167556690,4467.0
72.184267958,4495.0
72.200979227,4319.0
72.217690496,4549.0
72.234401765,4531.0
72.251113034,4520.0
72.267824303,4486.0
72.284535572,4413.0
72.301246841,4486.0
72.317958110,4481.0
72.334669379,4454.0
72.351380648,4529.0
72.368091917,4476.0
72.384803186,4536.0
72.401514455,4483.0
72.418225724,4381.0
72.434936993,4522.0
72.451648262,4547.0
72.468359531,4494.0
72.485070800,4390.0
72.501782069,4511.0
72.518493338,4416.0
72.535204607,4518.0
72.551915876,4583.0
72.568627145,4506.0
72.585338414,4509.0
72.602049683,4597.0
72.618760952,4443.0
72.635472221,4561.0
72.652183490,4514.0
72.668894759,4519.0
72.685606028,4541.0
72.702317297,4412.0
72.719028566,4554.0
72.735739835,4461.0
72.752451104,4543.0
72.769162373,4456.0
72.785873642,4391.0
72.802584911,4477.0
72.819296180,4574.0
72.836007449,4403.0
72.852718718,4511.0
72.869429987,4500.0
72.886141256,4465.0
72.902852525,4444.0
72.919563794,4644.0
72.936275063,4506.0
72.952986332,4531.0
72.969697601,4499.0
72.986408869,4521.0
73.003120138,4610.0
73.019831407,4582.0
73.036542676,4296.0
73.053253945,4690.0
73.069965214,4574.0
73.086676483,4618.0
73.103387752,4596.0
73.120099021,4495.0
73.136810290,4555.0
73.153521559,4561.0
73.170232828,4538.0
73.186944097,4503.0
73.203655366,4582.0
73.220366635,4559.0
73.237077904,4605.0
73.253789173,4617.0
73.270500442,4460.0
73.287211711,4646.0
73.303922980,4556.0
73.320634249,4673.0
73.337345518,4495.0
73.354056787,4674.0
73.370768056,4587.0
73.387479325,4585.0
73.404190594,4654.0
73.420901863,4641.0
73.437613132,4592.0
73.454324401,4777.0
73.471035670,4790.0
73.487746939,4738.0
73.504458208,4793.0
73.521169477,4871.0
73.537880746,4916.0
73.554592015,5109.0
73.571303284,5218.0
73.588014553,5207.0
73.604725822,5232.0
73.621437091,5378.0
73.638148360,5473.0
73.654859629,5612.0
73.671570898,5587.0
73.688282167,5572.0
73.704993436,5953.0
73.721704705,6081.0
73.738415974,6050.0
73.755127243,6179.0
73.771838512,6309.0
73.788549780,6683.0
73.805261049,6925.0
73.821972318,7179.0
73.838683587,7852.0
73.855394856,8740.0
73.872106125,10105.0
73.888817394,12440.0
73.905528663,16334.0
73.922239932,22737.0
73.938951201,33796.0
73.955662470,49045.0
73.972373739,64632.0
73.989085008,68030.0
74.005796277,55160.0
74.022507546,38724.0
74.039218815,25945.0
74.055930084,18357.0
74.072641353,14669.0
74.089352622,12747.0
74.106063891,12563.0
74.122775160,13831.0
74.139486429,16691.0
74.156197698,21689.0
74.172908967,28899.0
74.189620236,35114.0
74.206331505,35355.0
74.223042774,29457.0
74.239754043,21606.0
74.256465312,15264.0
74.273176581,11492.0
74.289887850,9087.0
74.306599119,7878.0
74.323310388,7065.0
74.340021657,6577.0
74.356732926,6432.0
74.373444195,5983.0
74.390155464,5871.0
74.406866733,5591.0
74.423578002,5472.0
74.440289271,5272.0
74.457000540,5083.0
74.473711809,4958.0
74.490423078,4990.0
74.507134347,5038.0
74.523845616,5104.0
74.540556885,4930.0
74.557268154,4958.0
74.573979423,4833.0
74.590690692,4845.0
74.607401960,4801.0
74.624113229,4680.0
74.640824498,4698.0
74.657535767,4694.0
74.674247036,4707.0
74.690958305,4569.0
74.707669574,4497.0
74.724380843,4747.0
74.741092112,4678.0
74.757803381,4608.0
74.774514650,4533.0
74.791225919,4631.0
74.807937188,4619.0
74.824648457,4517.0
74.841359726,4610.0
74.858070995,4482.0
74.874782264,4549.0
74.891493533,4660.0
74.908204802,4546.0
74.924916071,4611.0
74.941627340,4549.0
74.958338609,4572.0
74.975049878,4506.0
74.991761147,4594.0
75.008472416,4665.0
75.025183685,4547.0
75.041894954,4614.0
75.058606223,4475.0
75.075317492,4534.0
75.092028761,4563.0
75.108740030,4564.0
75.125451299,4570.0
75.142162568,4401.0
75.158873837,4515.0
75.175585106,4501.0
75.192296375,4535.0
75.209007644,4510.0
75.225718913,4467.0
75.242430182,4563.0
75.259141451,4577.0
75.275852720,4556.0
75.292563989,4440.0
75.309275258,4421.0
75.325986527,4407.0
75.342697796,4543.0
75.359409065,4469.0
75.376120334,4375.0
75.392831603,4626.0
75.409542871,4558.0
75.426254140,4480.0
75.442965409,4345.0
75.459676678,4392.0
75.476387947,4364.0
75.493099216,4525.0
75.509810485,4383.0
75.526521754,4381.0
75.543233023,4580.0
75.559944292,4375.0
75.576655561,4491.0
75.593366830,4399.0
75.610078099,4477.0
75.626789368,4467.0
75.643500637,4545.0
75.660211906,4459.0
75.676923175,4500.0
75.693634444,4512.0
75.710345713,4507.0
75.727056982,4643.0
75.743768251,4418.0
75.760479520,4577.0
75.777190789,4564.0
75.793902058,4375.0
75.810613327,4413.0
75.827324596,4451.0
75.844035865,4561.0
75.860747134,4450.0
75.877458403,4480.0
75.894169672,4452.0
75.910880941,4407.0
75.927592210,4373.0
75.944303479,4353.0
75.961014748,4433.0
75.977726017,4391.0
75.994437286,4528.0
76.011148555,4353.0
76.027859824,4323.0
76.044571093,4525.0
76.061282362,4578.0
76.077993631,4450.0
76.094704900,4550.0
76.111416169,4448.0
76.128127438,4396.0
76.144838707,4485.0
76.161549976,4451.0
76.178261245,4590.0
76.194972514,4480.0
76.211683782,4404.0
76.228395051,4370.0
76.245106320,4451.0
76.261817589,4500.0
76.278528858,4376.0
76.295240127,4445.0
76.311951396,4453.0
76.328662665,4416.0
76.345373934,4368.0
76.362085203,4478.0
76.378796472,4523.0
76.395507741,4365.0
76.412219010,4451.0
76.428930279,4415.0
76.445641548,4482.0
76.462352817,4553.0
76.479064086,4500.0
76.495775355,4592.0
76.512486624,4397.0
76.529197893,4451.0
76.545909162,4494.0
76.562620431,4519.0
76.579331700,4542.0
76.596042969,4435.0
76.612754238,4430.0
76.629465507,4498.0
76.646176776,4332.0
76.662888045,4504.0
76.679599314,4454.0
76.696310583,4511.0
76.713021852,4474.0
76.729733121,4384.0
76.746444390,4462.0
76.763155659,4392.0
76.779866928,4418.0
76.796578197,4419.0
76.813289466,4513.0
76.830000735,4382.0
76.846712004,4363.0
76.863423273,4555.0
76.880134542,4342.0
76.896845811,4393.0
76.913557080,4354.0
76.930268349,4429.0
76.946979618,4560.0
76.963690887,4318.0
76.980402156,4362.0
76.997113425,4476.0
77.013824693,4378.0
77.030535962,4506.0
77.047247231,4520.0
77.063958500,4403.0
77.080669769,4471.0
77.097381038,4493.0
77.114092307,4493.0
77.130803576,4414.0
77.147514845,4406.0
77.164226114,4406.0
77.180937383,4355.0
77.197648652,4298.0
77.214359921,4443.0
77.231071190,4383.0
77.247782459,4417.0
77.264493728,4415.0
77.281204997,4390.0
77.297916266,4354.0
77.314627535,4313.0
77.331338804,4503.0
77.348050073,4320.0
77.364761342,4485.0
77.381472611,4353.0
77.398183880,4345.0
77.414895149,4323.0
77.431606418,4498.0
77.448317687,4408.0
77.465028956,4386.0
77.481740225,4442.0
77.498451494,4421.0
77.515162763,4441.0
77.531874032,4395.0
77.548585301,4413.0
77.565296570,4449.0
77.582007839,4346.0
77.598719108,4464.0
77.615430377,4397.0
77.632141646,4502.0
77.648852915,4419.0
77.665564184,4379.0
77.682275453,4409.0
77.698986722,4325.0
77.715697991,4291.0
77.732409260,4435.0
77.749120529,4352.0
77.765831798,4293.0
77.782543067,4371.0
77.799254336,4442.0
77.815965605,4476.0
77.832676873,4436.0
77.849388142,4262.0
77.866099411,4476.0
77.882810680,4506.0
77.899521949,4484.0
77.916233218,4389.0
77.932944487,4348.0
77.949655756,4441.0
77.966367025,4472.0
77.983078294,4437.0
77.999789563,4459.0
78.016500832,4441.0
78.033212101,4393.0
78.049923370,4318.0
78.066634639,4423.0
78.083345908,4435.0
78.100057177,4495.0
78.116768446,4384.0
78.133479715,4342.0
78.150190984,4265.0
78.166902253,4437.0
78.183613522,4431.0
78.200324791,4438.0
78.217036060,4398.0
78.233747329,4341.0
78.250458598,4437.0
78.267169867,4395.0
78.283881136,4462.0
78.300592405,4453.0
78.317303674,4336.0
78.334014943,4380.0
78.350726212,4355.0
78.367437481,4305.0
78.384148750,4531.0
78.400860019,4368.0
78.417571288,4415.0
78.434282557,4281.0
78.450993826,4356.0
78.467705095,4352.0
78.484416364,4415.0
78.501127633,4430.0
78.517838902,4342.0
78.534550171,4475.0
78.551261440,4355.0
78.567972709,4430.0
78.584683978,4271.0
78.601395247,4392.0
78.618106516,4292.0
78.634817784,4402.0
78.651529053,4433.0
78.668240322,4472.0
78.684951591,4282.0
78.701662860,4489.0
78.718374129,4333.0
78.735085398,4348.0
78.751796667,4384.0
78.768507936,4496.0
78.785219205,4345.0
78.801930474,4320.0
78.818641743,4449.0
78.835353012,4418.0
78.852064281,4373.0
78.868775550,4257.0
78.885486819,4307.0
78.902198088,4395.0
78.918909357,4329.0
78.935620626,4488.0
78.952331895,4359.0
78.969043164,4269.0
78.985754433,4357.0
79.002465702,4378.0
79.019176971,4380.0
79.035888240,4394.0
79.052599509,4471.0
79.069310778,4305.0
79.086022047,4345.0
79.102733316,4353.0
79.119444585,4350.0
79.136155854,4420.0
79.152867123,4413.0
79.169578392,4412.0
79.186289661,4389.0
79.203000930,4510.0
79.219712199,4467.0
79.236423468,4419.0
79.253134737,4375.0
79.269846006,4301.0
79.286557275,4385.0
79.303268544,4341.0
79.319979813,4292.0
79.336691082,4396.0
79.353402351,4403.0
79.370113620,4378.0
79.386824889,4414.0
79.403536158,4424.0
79.420247427,4277.0
79.436958695,4340.0
79.453669964,4367.0
79.470381233,4358.0
79.487092502,4376.0
79.503803771,4466.0
79.520515040,4419.0
79.537226309,4409.0
79.553937578,4408.0
79.570648847,4394.0
79.587360116,4321.0
79.604071385,4334.0
79.620782654,4377.0
79.637493923,4449.0
79.654205192,4419.0
79.670916461,4258.0
79.687627730,4428.0
79.704338999,4292.0
79.721050268,4427.0
79.737761537,4520.0
79.754472806,4346.0
79.771184075,4328.0
79.787895344,4307.0
79.804606613,4299.0
79.821317882,4342.0
79.838029151,4328.0
79.854740420,4418.0
79.871451689,4292.0
79.888162958,4290.0
79.904874227,4388.0
79.921585496,4367.0
79.938296765,4387.0
79.955008034,4360.0
79.971719303,4506.0
79.988430572,4276.0
80.005141841,4254.0
80.021853110,4424.0
80.038564379,4417.0
80.055275648,4282.0
80.071986917,4316.0
80.088698186,4362.0
80.105409455,4370.0
80.122120724,4294.0
80.138831993,4398.0
80.155543262,4441.0
80.172254531,4354.0
80.188965800,4399.0
80.205677069,4305.0
80.222388338,4246.0
80.239099606,4503.0
80.255810875,4348.0
80.272522144,4336.0
80.289233413,4374.0
80.305944682,4308.0
80.322655951,4420.0
80.339367220,4342.0
80.356078489,4394.0
80.372789758,4388.0
80.389501027,4332.0
80.406212296,4406.0
80.422923565,4338.0
80.439634834,4338.0
80.456346103,4368.0
80.473057372,4266.0
80.489768641,4392.0
80.506479910,4340.0
80.523191179,4487.0
80.539902448,4215.0
80.556613717,4260.0
80.573324986,4347.0
80.590036255,4309.0
80.606747524,4388.0
80.623458793,4379.0
80.640170062,4303.0
80.656881331,4314.0
80.673592600,4320.0
80.690303869,4322.0
80.707015138,4375.0
80.723726407,4313.0
80.740437676,4340.0
80.757148945,4379.0
80.773860214,4390.0
80.790571483,4386.0
80.807282752,4451.0
80.823994021,4453.0
80.840705290,4359.0
80.857416559,4460.0
80.874127828,4480.0
80.890839097,4425.0
80.907550366,4489.0
80.924261635,4554.0
80.940972904,4354.0
80.957684173,4341.0
80.974395442,4351.0
80.991106711,4547.0
81.007817980,4537.0
81.024529249,4433.0
81.041240518,4509.0
81.057951786,4377.0
81.074663055,4312.0
81.091374324,4367.0
81.108085593,4427.0
81.124796862,4313.0
81.141508131,4441.0
81.158219400,4457.0
81.174930669,4415.0
81.191641938,4491.0
81.208353207,4321.0
81.225064476,4399.0
81.241775745,4496.0
81.258487014,4412.0
81.275198283,4417.0
81.291909552,4488.0
81.308620821,4360.0
81.325332090,4504.0
81.342043359,4294.0
81.358754628,4224.0
81.375465897,4304.0
81.392177166,4462.0
81.408888435,4454.0
81.425599704,4378.0
81.442310973,4314.0
81.459022242,4442.0
81.475733511,4343.0
81.492444780,4424.0
81.509156049,4419.0
81.525867318,4255.0
81.542578587,4336.0
81.559289856,4346.0
81.576001125,4436.0
81.592712394,4283.0
81.609423663,4376.0
81.626134932,4491.0
81.642846201,4406.0
81.659557470,4277.0
81.676268739,4504.0
81.692980008,4501.0
81.709691277,4456.0
81.726402546,4254.0
81.743113815,4430.0
81.759825084,4363.0
81.776536353,4351.0
81.793247622,4387.0
81.809958891,4449.0
81.826670160,4279.0
81.843381429,4396.0
81.860092697,4504.0
81.876803966,4381.0
81.893515235,4379.0
81.910226504,4432.0
81.926937773,4587.0
81.943649042,4453.0
81.960360311,4467.0
81.977071580,4378.0
81.993782849,4418.0
82.010494118,4426.0
82.027205387,4680.0
82.043916656,4763.0
82.060627925,4518.0
82.077339194,4541.0
82.094050463,4414.0
82.110761732,4598.0
82.127473001,4360.0
82.144184270,4414.0
82.160895539,4428.0
82.177606808,4493.0
82.194318077,4316.0
82.211029346,4350.0
82.227740615,4344.0
82.244451884,4387.0
82.261163153,4540.0
82.277874422,4427.0
82.294585691,4546.0
82.311296960,4509.0
82.328008229,4508.0
82.344719498,4469.0
82.361430767,4370.0
82.378142036,4358.0
82.394853305,4328.0
82.411564574,4393.0
82.428275843,4356.0
82.444987112,4275.0
82.461698381,4622.0
82.478409650,4321.0
82.495120919,4471.0
82.511832188,4384.0
82.528543457,4299.0
82.545254726,4221.0
82.561965995,4309.0
82.578677264,4225.0
82.595388533,4321.0
82.612099802,4378.0
82.628811071,4351.0
82.645522340,4261.0
82.662233608,4267.0
82.678944877,4355.0
82.695656146,4300.0
82.712367415,4371.0
82.729078684,4370.0
82.745789953,4499.0
82.762501222,4344.0
82.779212491,4448.0
82.795923760,4383.0
82.812635029,4377.0
82.829346298,4382.0
82.846057567,4349.0
82.862768836,4540.0
82.879480105,4238.0
82.896191374,4330.0
82.912902643,4344.0
82.929613912,4371.0
82.946325181,4258.0
82.963036450,4399.0
82.979747719,4341.0
82.996458988,4398.0
83.013170257,4198.0
83.029881526,4393.0
83.046592795,4186.0
83.063304064,4383.0
83.080015333,4449.0
83.096726602,4456.0
83.113437871,4207.0
83.130149140,4350.0
83.146860409,4224.0
83.163571678,4322.0
83.180282947,4343.0
83.196994216,4227.0
83.213705485,4369.0
83.230416754,4326.0
83.247128023,4239.0
83.263839292,4462.0
83.280550561,4425.0
83.297261830,4213.0
83.313973099,4393.0
83.330684368,4500.0
83.347395637,4334.0
83.364106906,4407.0
83.380818175,4366.0
83.397529444,4546.0
83.414240713,4389.0
83.430951982,4311.0
83.447663251,4508.0
83.464374519,4350.0
83.481085788,4382.0
83.497797057,4417.0
83.514508326,4292.0
83.531219595,4357.0
83.547930864,4388.0
83.564642133,4391.0
83.581353402,4311.0
83.598064671,4340.0
83.614775940,4366.0
83.631487209,4320.0
83.648198478,4485.0
83.664909747,4413.0
83.681621016,4367.0
83.698332285,4372.0
83.715043554,4428.0
83.731754823,4452.0
83.748466092,4212.0
83.765177361,4435.0
83.781888630,4372.0
83.798599899,4366.0
83.815311168,4423.0
83.832022437,4453.0
83.848733706,4391.0
83.865444975,4272.0
83.882156244,4373.0
83.898867513,4314.0
83.915578782,4405.0
83.932290051,4389.0
83.949001320,4335.0
83.965712589,4260.0
83.982423858,4286.0
83.999135127,4302.0
84.015846396,4450.0
84.032557665,4381.0
84.049268934,4287.0
84.065980203,4265.0
84.082691472,4262.0
84.099402741,4280.0
84.116114010,4299.0
84.132825279,4312.0
84.149536548,4402.0
84.166247817,4342.0
84.182959086,4302.0
84.199670355,4373.0
84.216381624,4361.0
84.233092893,4284.0
84.249804162,4330.0
84.266515431,4316.0
84.283226699,4328.0
84.299937968,4392.0
84.316649237,4289.0
84.333360506,4286.0
84.350071775,4471.0
84.366783044,4339.0
84.383494313,4405.0
84.400205582,4364.0
84.416916851,4187.0
84.433628120,4363.0
84.450339389,4344.0
84.467050658,4268.0
84.483761927,4439.0
84.500473196,4512.0
84.517184465,4211.0
84.533895734,4326.0
84.550607003,4456.0
84.567318272,4240.0
84.584029541,4400.0
84.600740810,4375.0
84.617452079,4346.0
84.634163348,4376.0
84.650874617,4260.0
84.667585886,4306.0
84.684297155,4355.0
84.701008424,4390.0
84.717719693,4366.0
84.734430962,4481.0
84.751142231,4232.0
84.767853500,4412.0
84.784564769,4384.0
84.801276038,4409.0
84.817987307,4410.0
84.834698576,4377.0
84.851409845,4315.0
84.868121114,4330.0
84.884832383,4266.0
84.901543652,4267.0
84.918254921,4330.0
84.934966190,4357.0
84.951677459,4500.0
84.968388728,4359.0
84.985099997,4317.0
85.001811266,4461.0
85.018522535,4313.0
85.035233804,4304.0
85.051945073,4256.0
85.068656342,4261.0
85.085367610,4330.0
85.102078879,4289.0
85.118790148,4315.0
85.135501417,4314.0
85.152212686,4330.0
85.168923955,4409.0
85.185635224,4422.0
85.202346493,4338.0
85.219057762,4345.0
85.235769031,4276.0
85.252480300,4327.0
85.269191569,4257.0
85.285902838,4358.0
85.302614107,4379.0
85.319325376,4431.0
85.336036645,4489.0
85.352747914,4331.0
85.369459183,4415.0
85.386170452,4372.0
85.402881721,4404.0
85.419592990,4426.0
85.436304259,4261.0
85.453015528,4356.0
85.469726797,4319.0
85.486438066,4327.0
85.503149335,4370.0
85.519860604,4391.0
85.536571873,4325.0
85.553283142,4273.0
85.569994411,4281.0
85.586705680,4380.0
85.603416949,4404.0
85.620128218,4300.0
85.636839487,4356.0
85.653550756,4335.0
85.670262025,4389.0
85.686973294,4387.0
85.703684563,4329.0
85.720395832,4391.0
85.737107101,4422.0
85.753818370,4387.0
85.770529639,4318.0
85.787240908,4356.0
85.803952177,4380.0
85.820663446,4468.0
85.837374715,4242.0
85.854085984,4405.0
85.870797253,4327.0
85.887508521,4392.0
85.904219790,4428.0
85.920931059,4362.0
85.937642328,4313.0
85.954353597,4342.0
85.971064866,4444.0
85.987776135,4448.0
86.004487404,4420.0
86.021198673,4382.0
86.037909942,4441.0
86.054621211,4337.0
86.071332480,4393.0
86.088043749,4324.0
86.104755018,4406.0
86.121466287,4482.0
86.138177556,4433.0
86.154888825,4335.0
86.171600094,4401.0
86.188311363,4355.0
86.205022632,4358.0
86.221733901,4426.0
86.238445170,4394.0
86.255156439,4380.0
86.271867708,4227.0
86.288578977,4308.0
86.305290246,4293.0
86.322001515,4358.0
86.338712784,4415.0
86.355424053,4357.0
86.372135322,4411.0
86.388846591,4403.0
86.405557860,4405.0
86.422269129,4439.0
86.438980398,4249.0
86.455691667,4609.0
86.472402936,4397.0
86.489114205,4370.0
86.505825474,4388.0
86.522536743,4306.0
86.539248012,4337.0
86.555959281,4417.0
86.572670550,4399.0
86.589381819,4469.0
86.606093088,4453.0
86.622804357,4366.0
86.639515626,4377.0
86.656226895,4390.0
86.672938164,4399.0
86.689649432,4422.0
86.706360701,4254.0
86.723071970,4456.0
86.739783239,4348.0
86.756494508,4368.0
86.773205777,4456.0
86.789917046,4444.0
86.806628315,4263.0
86.823339584,4417.0
86.840050853,4353.0
86.856762122,4398.0
86.873473391,4348.0
86.890184660,4449.0
86.906895929,4495.0
86.923607198,4450.0
86.940318467,4560.0
86.957029736,4359.0
86.973741005,4351.0
86.990452274,4409.0
87.007163543,4440.0
87.023874812,4558.0
87.040586081,4343.0
87.057297350,4327.0
87.074008619,4542.0
87.090719888,4344.0
87.107431157,4389.0
87.124142426,4334.0
87.140853695,4350.0
87.157564964,4327.0
87.174276233,4394.0
87.190987502,4291.0
87.207698771,4207.0
87.224410040,4459.0
87.241121309,4408.0
87.257832578,4388.0
87.274543847,4304.0
87.291255116,4360.0
87.307966385,4488.0
87.324677654,4429.0
87.341388923,4345.0
87.358100192,4433.0
87.374811461,4525.0
87.391522730,4334.0
87.408233999,4457.0
87.424945268,4362.0
87.441656537,4438.0
87.458367806,4360.0
87.475079075,4417.0
87.491790344,4345.0
87.508501612,4451.0
87.525212881,4425.0
87.541924150,4455.0
87.558635419,4300.0
87.575346688,4336.0
87.592057957,4411.0
87.608769226,4352.0
87.625480495,4449.0
87.642191764,4349.0
87.658903033,4396.0
87.675614302,4395.0
87.692325571,4416.0
87.709036840,4355.0
87.725748109,4350.0
87.742459378,4415.0
87.759170647,4369.0
87.775881916,4337.0
87.792593185,4425.0
87.809304454,4494.0
87.826015723,4255.0
87.842726992,4386.0
87.859438261,4395.0
87.876149530,4421.0
87.892860799,4427.0
87.909572068,4428.0
87.926283337,4334.0
87.942994606,4400.0
87.959705875,4252.0
87.976417144,4342.0
87.993128413,4278.0
88.009839682,4335.0
88.026550951,4405.0
88.043262220,4418.0
88.059973489,4455.0
88.076684758,4347.0
88.093396027,4423.0
88.110107296,4427.0
88.126818565,4268.0
88.143529834,4407.0
88.160241103,4294.0
88.176952372,4379.0
88.193663641,4427.0
88.210374910,4465.0
88.227086179,4441.0
88.243797448,4304.0
88.260508717,4372.0
88.277219986,4489.0
88.293931255,4404.0
88.310642523,4427.0
88.327353792,4390.0
88.344065061,4486.0
88.360776330,4456.0
88.377487599,4409.0
88.394198868,4470.0
88.410910137,4359.0
88.427621406,4393.0
88.444332675,4376.0
88.461043944,4324.0
88.477755213,4325.0
88.494466482,4463.0
88.511177751,4444.0
88.527889020,4367.0
88.544600289,4440.0
88.561311558,4485.0
88.578022827,4368.0
88.594734096,4267.0
88.611445365,4351.0
88.628156634,4360.0
88.644867903,4370.0
88.661579172,4453.0
88.678290441,4412.0
88.695001710,4262.0
88.711712979,4342.0
88.728424248,4435.0
88.745135517,4444.0
88.761846786,4317.0
88.778558055,4438.0
88.795269324,4376.0
88.811980593,4388.0
88.828691862,4298.0
88.845403131,4374.0
88.862114400,4344.0
88.878825669,4357.0
88.895536938,4428.0
88.912248207,4306.0
88.928959476,4461.0
88.945670745,4380.0
88.962382014,4470.0
88.979093283,4486.0
88.995804552,4430.0
89.012515821,4449.0
89.029227090,4350.0
89.045938359,4402.0
89.062649628,4448.0
89.079360897,4540.0
89.096072166,4491.0
89.112783434,4495.0
89.129494703,4591.0
89.146205972,4441.0
89.162917241,4434.0
89.179628510,4493.0
89.196339779,4577.0
89.213051048,4485.0
89.229762317,4483.0
89.246473586,4548.0
89.263184855,4559.0
89.279896124,4726.0
89.296607393,4600.0
89.313318662,4572.0
89.330029931,4566.0
89.346741200,4648.0
89.363452469,4654.0
89.380163738,4646.0
89.396875007,4650.0
89.413586276,4725.0
89.430297545,4820.0
89.447008814,4711.0
89.463720083,4858.0
89.480431352,4934.0
89.497142621,4966.0
89.513853890,4956.0
89.530565159,5023.0
89.547276428,5177.0
89.563987697,5188.0
89.580698966,5073.0
89.597410235,5427.0
89.614121504,5610.0
89.630832773,5614.0
89.647544042,5972.0
89.664255311,6256.0
89.680966580,6722.0
89.697677849,7304.0
89.714389118,8268.0
89.731100387,9926.0
89.747811656,11547.0
89.764522925,14924.0
89.781234194,18802.0
89.797945463,22224.0
89.814656732,23444.0
89.831368001,21986.0
89.848079270,18899.0
89.864790539,15273.0
89.881501808,12117.0
89.898213077,10008.0
89.914924345,8960.0
89.931635614,7925.0
89.948346883,7312.0
89.965058152,7121.0
89.981769421,7388.0
89.998480690,7326.0
90.015191959,8021.0
90.031903228,8692.0
90.048614497,10067.0
90.065325766,11887.0
90.082037035,13317.0
90.098748304,13781.0
90.115459573,13358.0
90.132170842,11747.0
90.148882111,10020.0
90.165593380,8484.0
90.182304649,7478.0
90.199015918,6638.0
90.215727187,6125.0
90.232438456,5661.0
90.249149725,5512.0
90.265860994,5342.0
90.282572263,5093.0
90.299283532,4864.0
90.315994801,5044.0
90.332706070,4950.0
90.349417339,4837.0
90.366128608,4771.0
90.382839877,4727.0
90.399551146,4693.0
90.416262415,4554.0
90.432973684,4700.0
90.449684953,4608.0
90.466396222,4623.0
90.483107491,4684.0
90.499818760,4522.0
90.516530029,4752.0
90.533241298,4644.0
90.549952567,4503.0
90.566663836,4660.0
90.583375105,4411.0
90.600086374,4497.0
90.616797643,4367.0
90.633508912,4433.0
90.650220181,4422.0
90.666931450,4410.0
90.683642719,4423.0
90.700353988,4397.0
90.717065257,4396.0
90.733776525,4394.0
90.750487794,4639.0
90.767199063,4622.0
90.783910332,4545.0
90.800621601,4567.0
90.817332870,4502.0
90.834044139,4489.0
90.850755408,4481.0
90.867466677,4499.0
90.884177946,4511.0
90.900889215,4394.0
90.917600484,4447.0
90.934311753,4514.0
90.951023022,4516.0
90.967734291,4541.0
90.984445560,4357.0
91.001156829,4501.0
91.017868098,4337.0
91.034579367,4398.0
91.051290636,4420.0
91.068001905,4372.0
91.084713174,4408.0
91.101424443,4464.0
91.118135712,4432.0
91.134846981,4420.0
91.151558250,4381.0
91.168269519,4495.0
91.184980788,4407.0
91.201692057,4387.0
91.218403326,4461.0
91.235114595,4388.0
91.251825864,4284.0
91.268537133,4584.0
91.285248402,4480.0
91.301959671,4388.0
91.318670940,4500.0
91.335382209,4386.0
91.352093478,4474.0
91.368804747,4399.0
91.385516016,4442.0
91.402227285,4444.0
91.418938554,4516.0
91.435649823,4490.0
91.452361092,4456.0
91.469072361,4449.0
91.485783630,4378.0
91.502494899,4360.0
91.519206168,4482.0
91.535917436,4371.0
91.552628705,4379.0
91.569339974,4425.0
91.586051243,4482.0
91.602762512,4359.0
91.619473781,4451.0
91.636185050,4351.0
91.652896319,4479.0
91.669607588,4439.0
91.686318857,4355.0
91.703030126,4394.0
91.719741395,4313.0
91.736452664,4397.0
91.753163933,4421.0
91.769875202,4380.0
91.786586471,4331.0
91.803297740,4418.0
91.820009009,4428.0
91.836720278,4387.0
91.853431547,4322.0
91.870142816,4416.0
91.886854085,4340.0
91.903565354,4440.0
91.920276623,4395.0
91.936987892,4357.0
91.953699161,4456.0
91.970410430,4575.0
91.987121699,4482.0
92.003832968,4294.0
92.020544237,4308.0
92.037255506,4426.0
92.053966775,4379.0
92.070678044,4260.0
92.087389313,4447.0
92.104100582,4357.0
92.120811851,4444.0
92.137523120,4260.0
92.154234389,4425.0
92.170945658,4425.0
92.187656927,4361.0
92.204368196,4372.0
92.221079465,4396.0
92.237790734,4389.0
92.254502003,4310.0
92.271213272,4327.0
92.287924541,4374.0
92.304635810,4349.0
92.321347079,4408.0
92.338058347,4399.0
92.354769616,4449.0
92.371480885,4377.0
92.388192154,4294.0
92.404903423,4338.0
92.421614692,4521.0
92.438325961,4398.0
92.455037230,4482.0
92.471748499,4547.0
92.488459768,4276.0
92.505171037,4448.0
92.521882306,4368.0
92.538593575,4257.0
92.555304844,4230.0
92.572016113,4379.0
92.588727382,4382.0
92.605438651,4419.0
92.622149920,4493.0
92.638861189,4338.0
92.655572458,4459.0
92.672283727,4477.0
92.688994996,4425.0
92.705706265,4315.0
92.722417534,4520.0
92.739128803,4438.0
92.755840072,4372.0
92.772551341,4370.0
92.789262610,4349.0
92.805973879,4421.0
92.822685148,4422.0
92.839396417,4376.0
92.856107686,4457.0
92.872818955,4453.0
92.889530224,4353.0
92.906241493,4405.0
92.922952762,4262.0
92.939664031,4445.0
92.956375300,4326.0
92.973086569,4302.0
92.989797838,4365.0
93.006509107,4378.0
93.023220376,4236.0
93.039931645,4492.0
93.056642914,4511.0
93.073354183,4334.0
93.090065452,4350.0
93.106776721,4444.0
93.123487990,4445.0
93.140199258,4242.0
93.156910527,4452.0
93.173621796,4386.0
93.190333065,4331.0
93.207044334,4425.0
93.223755603,4310.0
93.240466872,4301.0
93.257178141,4455.0
93.273889410,4403.0
93.290600679,4414.0
93.307311948,4535.0
93.324023217,4427.0
93.340734486,4244.0
93.357445755,4415.0
93.374157024,4448.0
93.390868293,4464.0
93.407579562,4467.0
93.424290831,4388.0
93.441002100,4451.0
93.457713369,4383.0
93.474424638,4340.0
93.491135907,4353.0
93.507847176,4387.0
93.524558445,4286.0
93.541269714,4287.0
93.557980983,4399.0
93.574692252,4365.0
93.591403521,4441.0
93.608114790,4388.0
93.624826059,4454.0
93.641537328,4392.0
93.658248597,4409.0
93.674959866,4355.0
93.691671135,4324.0
93.708382404,4422.0
93.725093673,4353.0
93.741804942,4546.0
93.758516211,4456.0
93.775227480,4374.0
93.791938749,4446.0
93.808650018,4445.0
93.825361287,4343.0
93.842072556,4431.0
93.858783825,4475.0
93.875495094,4422.0
93.892206363,4407.0
93.908917632,4382.0
93.925628901,4436.0
93.942340170,4412.0
93.959051438,4413.0
93.975762707,4473.0
93.992473976,4454.0
94.009185245,4366.0
94.025896514,4389.0
94.042607783,4375.0
94.059319052,4461.0
94.076030321,4378.0
94.092741590,4496.0
94.109452859,4469.0
94.126164128,4415.0
94.142875397,4423.0
94.159586666,4404.0
94.176297935,4423.0
94.193009204,4421.0
94.209720473,4333.0
94.226431742,4470.0
94.243143011,4366.0
94.259854280,4468.0
94.276565549,4449.0
94.293276818,4431.0
94.309988087,4416.0
94.326699356,4454.0
94.343410625,4482.0
94.360121894,4440.0
94.376833163,4525.0
94.393544432,4488.0
94.410255701,4474.0
94.426966970,4519.0
94.443678239,4593.0
94.460389508,4510.0
94.477100777,4519.0
94.493812046,4567.0
94.510523315,4640.0
94.527234584,4659.0
94.543945853,4542.0
94.560657122,4675.0
94.577368391,4736.0
94.594079660,4563.0
94.610790929,4681.0
94.627502198,4681.0
94.644213467,4749.0
94.660924736,4656.0
94.677636005,4715.0
94.694347274,4902.0
94.711058543,4797.0
94.727769812,4803.0
94.744481081,4878.0
94.761192349,4897.0
94.777903618,5009.0
94.794614887,5246.0
94.811326156,5145.0
94.828037425,5327.0
94.844748694,5549.0
94.861459963,5734.0
94.878171232,5955.0
94.894882501,6060.0
94.911593770,6671.0
94.928305039,7476.0
94.945016308,8569.0
94.961727577,10559.0
94.978438846,13634.0
94.995150115,18129.0
95.011861384,23257.0
95.028572653,26459.0
95.045283922,25040.0
95.061995191,20510.0
95.078706460,15719.0
95.095417729,12404.0
95.112128998,9999.0
95.128840267,8408.0
95.145551536,7555.0
95.162262805,6955.0
95.178974074,6668.0
95.195685343,6398.0
95.212396612,6281.0
95.229107881,6570.0
95.245819150,6948.0
95.262530419,7467.0
95.279241688,8402.0
95.295952957,9964.0
95.312664226,12078.0
95.329375495,14329.0
95.346086764,15006.0
95.362798033,13965.0
95.379509302,11715.0
95.396220571,9723.0
95.412931840,8214.0
95.429643109,6997.0
95.446354378,6277.0
95.463065647,5766.0
95.479776916,5551.0
95.496488185,5334.0
95.513199454,5098.0
95.529910723,4852.0
95.546621992,5009.0
95.563333260,4875.0
95.580044529,4861.0
95.596755798,4644.0
95.613467067,4683.0
95.630178336,4648.0
95.646889605,4674.0
95.663600874,4543.0
95.680312143,4681.0
95.697023412,4620.0
95.713734681,4563.0
95.730445950,4560.0
95.747157219,4559.0
95.763868488,4501.0
95.780579757,4342.0
95.797291026,4442.0
95.814002295,4549.0
95.830713564,4549.0
95.847424833,4518.0
95.864136102,4513.0
95.880847371,4454.0
95.897558640,4508.0
95.914269909,4533.0
95.930981178,4513.0
95.947692447,4458.0
95.964403716,4427.0
95.981114985,4491.0
95.997826254,4301.0
96.014537523,4428.0
96.031248792,4430.0
96.047960061,4242.0
96.064671330,4501.0
96.081382599,4612.0
96.098093868,4366.0
96.114805137,4375.0
96.131516406,4424.0
96.148227675,4414.0
96.164938944,4401.0
96.181650213,4341.0
96.198361482,4468.0
96.215072751,4507.0
96.231784020,4522.0
96.248495289,4402.0
96.265206558,4406.0
96.281917827,4510.0
96.298629096,4343.0
96.315340365,4420.0
96.332051634,4332.0
96.348762903,4415.0
96.365474171,4349.0
96.382185440,4392.0
96.398896709,4354.0
96.415607978,4413.0
96.432319247,4459.0
96.449030516,4369.0
96.465741785,4401.0
96.482453054,4451.0
96.499164323,4568.0
96.515875592,4354.0
96.532586861,4362.0
96.549298130,4453.0
96.566009399,4526.0
96.582720668,4414.0
96.599431937,4383.0
96.616143206,4349.0
96.632854475,4399.0
96.649565744,4450.0
96.666277013,4383.0
96.682988282,4284.0
96.699699551,4371.0
96.716410820,4328.0
96.733122089,4408.0
96.749833358,4401.0
96.766544627,4418.0
96.783255896,4371.0
96.799967165,4340.0
96.816678434,4336.0
96.833389703,4360.0
96.850100972,4408.0
96.866812241,4367.0
96.883523510,4318.0
96.900234779,4354.0
96.916946048,4396.0
96.933657317,4450.0
96.950368586,4515.0
96.967079855,4429.0
96.983791124,4367.0
97.000502393,4417.0
97.017213662,4408.0
97.033924931,4483.0
97.050636200,4375.0
97.067347469,4348.0
97.084058738,4257.0
97.100770007,4529.0
97.117481276,4380.0
97.134192545,4298.0
97.150903814,4356.0
97.167615083,4257.0
97.184326351,4477.0
97.201037620,4310.0
97.217748889,4395.0
97.234460158,4313.0
97.251171427,4284.0
97.267882696,4429.0
97.284593965,4327.0
97.301305234,4291.0
97.318016503,4325.0
97.334727772,4423.0
97.351439041,4405.0
97.368150310,4244.0
97.384861579,4253.0
97.401572848,4317.0
97.418284117,4334.0
97.434995386,4343.0
97.451706655,4340.0
97.468417924,4341.0
97.485129193,4374.0
97.501840462,4494.0
97.518551731,4326.0
97.535263000,4484.0
97.551974269,4382.0
97.568685538,4228.0
97.585396807,4395.0
97.602108076,4337.0
97.618819345,4356.0
97.635530614,4310.0
97.652241883,4403.0
97.668953152,4264.0
97.685664421,4392.0
97.702375690,4225.0
97.719086959,4289.0
97.735798228,4377.0
97.752509497,4363.0
97.769220766,4417.0
97.785932035,4441.0
97.802643304,4138.0
97.819354573,4371.0
97.836065842,4420.0
97.852777111,4382.0
97.869488380,4409.0
97.886199649,4410.0
97.902910918,4293.0
97.919622187,4232.0
97.936333456,4235.0
97.953044725,4359.0
97.969755994,4315.0
97.986467262,4251.0
98.003178531,4411.0
98.019889800,4367.0
98.036601069,4285.0
98.053312338,4395.0
98.070023607,4349.0
98.086734876,4367.0
98.103446145,4355.0
98.120157414,4357.0
98.136868683,4395.0
98.153579952,4417.0
98.170291221,4277.0
98.187002490,4382.0
98.203713759,4313.0
98.220425028,4351.0
98.237136297,4295.0
98.253847566,4261.0
98.270558835,4123.0
98.287270104,4387.0
98.303981373,4312.0
98.320692642,4323.0
98.337403911,4323.0
98.354115180,4235.0
98.370826449,4295.0
98.387537718,4393.0
98.404248987,4375.0
98.420960256,4396.0
98.437671525,4159.0
98.454382794,4461.0
98.471094063,4355.0
98.487805332,4427.0
98.504516601,4397.0
98.521227870,4303.0
98.537939139,4435.0
98.554650408,4319.0
98.571361677,4376.0
98.588072946,4387.0
98.604784215,4405.0
98.621495484,4347.0
98.638206753,4357.0
98.654918022,4305.0
98.671629291,4436.0
98.688340560,4263.0
98.705051829,4261.0
98.721763098,4322.0
98.738474367,4537.0
98.755185636,4430.0
98.771896905,4290.0
98.788608173,4356.0
98.805319442,4228.0
98.822030711,4409.0
98.838741980,4290.0
98.855453249,4284.0
98.872164518,4188.0
98.888875787,4372.0
98.905587056,4280.0
98.922298325,4291.0
98.939009594,4376.0
98.955720863,4386.0
98.972432132,4289.0
98.989143401,4322.0
99.005854670,4299.0
99.022565939,4304.0
99.039277208,4268.0
99.055988477,4275.0
99.072699746,4472.0
99.089411015,4409.0
99.106122284,4163.0
99.122833553,4429.0
99.139544822,4337.0
99.156256091,4379.0
99.172967360,4448.0
99.189678629,4335.0
99.206389898,4325.0
99.223101167,4330.0
99.239812436,4347.0
99.256523705,4349.0
99.273234974,4327.0
99.289946243,4300.0
99.306657512,4271.0
99.323368781,4338.0
99.340080050,4337.0
99.356791319,4375.0
99.373502588,4489.0
99.390213857,4292.0
99.406925126,4213.0
99.423636395,4367.0
99.440347664,4411.0
99.457058933,4403.0
99.473770202,4349.0
99.490481471,4406.0
99.507192740,4277.0
99.523904009,4187.0
99.540615278,4279.0
99.557326547,4305.0
99.574037816,4444.0
99.590749084,4383.0
99.607460353,4483.0
99.624171622,4311.0
99.640882891,4414.0
99.657594160,4293.0
99.674305429,4263.0
99.691016698,4265.0
99.707727967,4321.0
99.724439236,4438.0
99.741150505,4404.0
99.757861774,4430.0
99.774573043,4279.0
99.791284312,4208.0
99.807995581,4359.0
99.824706850,4328.0
99.841418119,4348.0
99.858129388,4353.0
99.874840657,4314.0
99.891551926,4310.0
99.908263195,4288.0
99.924974464,4348.0
99.941685733,4288.0
99.958397002,4287.0
99.975108271,4306.0
99.991819540,4286.0
