[Measurement conditions]
Sample identification,
Comment - 1,"finito"
Comment - 2,"Configuration=MRI TC-Basic Stage, Owner=User-1, Creation date=26-10-2009 9:18:44"
Comment - 3,"Goniometer=PW3050/60 (Theta/Theta); Minimum step size 2Theta:0.001; Minimum step size Omega:0.001"
Comment - 4,"Sample stage=MRI TC-Basic (PtRh heat strip)"
Comment - 5,"Diffractometer system=XPERT-PRO"
Comment - 6,"Measurement program=FlatStage, Owner=joana, Creation date=03-08-2011 15:43:53"
Anode material,Cu
K-Alpha1 wavelength,1.5405980
K-Alpha2 wavelength,1.5444260
Ratio K-Alpha2/K-Alpha1,0.500
Divergence slit,Fixed,0.76mm
Monochromator used,NO
Generator voltage, 45
Tube current, 40
File date and time,07/Dec/2012 00:49
Unit cell,
h k l, 0 0 0
Temperature [K],773
Scan axis,Gonio
Scan range,24.999999996,100.000175174
Scan step size,0.0167113
No. of points, 4488
Scan type,CONTINUOUS
Time per step,53.340
[Scan points]
Angle,Intensity
25.008355630,4718.0
25.025066899,4768.0
25.041778168,4731.0
25.058489437,4704.0
25.075200706,4694.0
25.091911975,4761.0
25.108623244,4725.0
25.125334513,4701.0
25.142045782,4779.0
25.158757051,4621.0
25.175468320,4731.0
25.192179589,4692.0
25.208890858,4824.0
25.225602127,4678.0
25.242313396,4688.0
25.259024665,4695.0
25.275735934,4587.0
25.292447203,4855.0
25.309158472,4580.0
25.325869741,4759.0
25.342581010,4773.0
25.359292279,4566.0
25.376003548,4739.0
25.392714817,4847.0
25.409426086,4748.0
25.426137354,4820.0
25.442848623,4790.0
25.459559892,4697.0
25.476271161,4710.0
25.492982430,4722.0
25.509693699,4786.0
25.526404968,4840.0
25.543116237,4671.0
25.559827506,4799.0
25.576538775,4852.0
25.593250044,4647.0
25.609961313,4728.0
25.626672582,4659.0
25.643383851,4745.0
25.660095120,4865.0
25.676806389,4706.0
25.693517658,4797.0
25.710228927,4720.0
25.726940196,4675.0
25.743651465,4740.0
25.760362734,4783.0
25.777074003,4778.0
25.793785272,4735.0
25.810496541,4628.0
25.827207810,4764.0
25.843919079,4641.0
25.860630348,4773.0
25.877341617,4724.0
25.894052886,4806.0
25.910764155,4972.0
25.927475424,4892.0
25.944186693,4773.0
25.960897962,4781.0
25.977609231,4665.0
25.994320500,4677.0
26.011031769,4909.0
26.027743038,4781.0
26.044454307,4819.0
26.061165576,4809.0
26.077876845,4788.0
26.094588114,4782.0
26.111299383,4696.0
26.128010652,4776.0
26.144721921,4667.0
26.161433190,4769.0
26.178144459,4736.0
26.194855728,4693.0
26.211566997,4811.0
26.228278265,4858.0
26.244989534,4767.0
26.261700803,4745.0
26.278412072,4839.0
26.295123341,4765.0
26.311834610,4737.0
26.328545879,4657.0
26.345257148,4697.0
26.361968417,4929.0
26.378679686,4638.0
26.395390955,4670.0
26.412102224,4684.0
26.428813493,4785.0
26.445524762,4775.0
26.462236031,4782.0
26.478947300,4860.0
26.495658569,4626.0
26.512369838,4752.0
26.529081107,4703.0
26.545792376,4697.0
26.562503645,4857.0
26.579214914,4766.0
26.595926183,4794.0
26.612637452,4721.0
26.629348721,4830.0
26.646059990,4740.0
26.662771259,4808.0
26.679482528,4867.0
26.696193797,4761.0
26.712905066,4798.0
26.729616335,4765.0
26.746327604,4705.0
26.763038873,4804.0
26.779750142,4821.0
26.796461411,4745.0
26.813172680,4833.0
26.829883949,4740.0
26.846595218,4760.0
26.863306487,4835.0
26.880017756,4798.0
26.896729025,4800.0
26.913440294,4797.0
26.930151563,4731.0
26.946862832,4770.0
26.963574101,4800.0
26.980285370,4857.0
26.996996639,4749.0
27.013707908,4706.0
27.030419176,4817.0
27.047130445,4778.0
27.063841714,4864.0
27.080552983,4751.0
27.097264252,4822.0
27.113975521,4848.0
27.130686790,4757.0
27.147398059,4902.0
27.164109328,4729.0
27.180820597,4678.0
27.197531866,4752.0
27.214243135,4769.0
27.230954404,4729.0
27.247665673,4754.0
27.264376942,4857.0
27.281088211,4733.0
27.297799480,4728.0
27.314510749,4749.0
27.331222018,4783.0
27.347933287,4848.0
27.364644556,4857.0
27.381355825,4745.0
27.398067094,4897.0
27.414778363,4765.0
27.431489632,4745.0
27.448200901,4758.0
27.464912170,4679.0
27.481623439,4906.0
27.498334708,4808.0
27.515045977,4798.0
27.531757246,4816.0
27.548468515,4809.0
27.565179784,4817.0
27.581891053,4888.0
27.598602322,4838.0
27.615313591,4690.0
27.632024860,4747.0
27.648736129,4802.0
27.665447398,4833.0
27.682158667,4798.0
27.698869936,4864.0
27.715581205,4782.0
27.732292474,4879.0
27.749003743,4732.0
27.765715012,4905.0
27.782426281,4860.0
27.799137550,4774.0
27.815848819,4851.0
27.832560087,4847.0
27.849271356,4879.0
27.865982625,4814.0
27.882693894,4794.0
27.899405163,4836.0
27.916116432,4783.0
27.932827701,4770.0
27.949538970,4717.0
27.966250239,4732.0
27.982961508,4782.0
27.999672777,4720.0
28.016384046,4830.0
28.033095315,4743.0
28.049806584,4765.0
28.066517853,4826.0
28.083229122,4761.0
28.099940391,4726.0
28.116651660,4903.0
28.133362929,4821.0
28.150074198,4833.0
28.166785467,4755.0
28.183496736,4742.0
28.200208005,4747.0
28.216919274,4776.0
28.233630543,4804.0
28.250341812,4754.0
28.267053081,4883.0
28.283764350,4914.0
28.300475619,4737.0
28.317186888,4719.0
28.333898157,4854.0
28.350609426,4760.0
28.367320695,4858.0
28.384031964,4874.0
28.400743233,4870.0
28.417454502,4843.0
28.434165771,4892.0
28.450877040,4869.0
28.467588309,4707.0
28.484299578,4848.0
28.501010847,4897.0
28.517722116,4918.0
28.534433385,4762.0
28.551144654,4848.0
28.567855923,4869.0
28.584567192,4819.0
28.601278461,4771.0
28.617989730,4822.0
28.634700999,4965.0
28.651412267,4717.0
28.668123536,4816.0
28.684834805,4782.0
28.701546074,4923.0
28.718257343,4754.0
28.734968612,4888.0
28.751679881,4772.0
28.768391150,4895.0
28.785102419,4900.0
28.801813688,4926.0
28.818524957,4823.0
28.835236226,4963.0
28.851947495,4819.0
28.868658764,4755.0
28.885370033,4888.0
28.902081302,4725.0
28.918792571,4737.0
28.935503840,4774.0
28.952215109,4829.0
28.968926378,4971.0
28.985637647,4837.0
29.002348916,4895.0
29.019060185,4863.0
29.035771454,4938.0
29.052482723,4939.0
29.069193992,4959.0
29.085905261,4788.0
29.102616530,5020.0
29.119327799,4915.0
29.136039068,5121.0
29.152750337,4954.0
29.169461606,5167.0
29.186172875,5124.0
29.202884144,5080.0
29.219595413,5156.0
29.236306682,5230.0
29.253017951,5559.0
29.269729220,5533.0
29.286440489,5537.0
29.303151758,5756.0
29.319863027,5869.0
29.336574296,5880.0
29.353285565,5927.0
29.369996834,6137.0
29.386708103,6293.0
29.403419372,6602.0
29.420130641,6823.0
29.436841910,6867.0
29.453553178,6968.0
29.470264447,7213.0
29.486975716,7295.0
29.503686985,7446.0
29.520398254,7575.0
29.537109523,7583.0
29.553820792,7673.0
29.570532061,7854.0
29.587243330,7694.0
29.603954599,7563.0
29.620665868,7438.0
29.637377137,7268.0
29.654088406,7163.0
29.670799675,6961.0
29.687510944,6631.0
29.704222213,6381.0
29.720933482,6163.0
29.737644751,6119.0
29.754356020,5815.0
29.771067289,5662.0
29.787778558,5417.0
29.804489827,5368.0
29.821201096,5206.0
29.837912365,5182.0
29.854623634,4995.0
29.871334903,4929.0
29.888046172,4954.0
29.904757441,5018.0
29.921468710,5000.0
29.938179979,4869.0
29.954891248,4902.0
29.971602517,4841.0
29.988313786,4970.0
30.005025055,4924.0
30.021736324,4878.0
30.038447593,4823.0
30.055158862,4809.0
30.071870131,4932.0
30.088581400,4978.0
30.105292669,4847.0
30.122003938,4899.0
30.138715207,4882.0
30.155426476,4853.0
30.172137745,4896.0
30.188849014,4862.0
30.205560283,4806.0
30.222271552,4851.0
30.238982821,5001.0
30.255694089,4851.0
30.272405358,4794.0
30.289116627,4882.0
30.305827896,4911.0
30.322539165,4817.0
30.339250434,4954.0
30.355961703,4847.0
30.372672972,4943.0
30.389384241,4819.0
30.406095510,4841.0
30.422806779,4805.0
30.439518048,4849.0
30.456229317,4800.0
30.472940586,4884.0
30.489651855,4850.0
30.506363124,4693.0
30.523074393,4748.0
30.539785662,4784.0
30.556496931,4866.0
30.573208200,4870.0
30.589919469,4963.0
30.606630738,4747.0
30.623342007,4913.0
30.640053276,4843.0
30.656764545,4983.0
30.673475814,4868.0
30.690187083,4800.0
30.706898352,4869.0
30.723609621,4865.0
30.740320890,4873.0
30.757032159,4932.0
30.773743428,4840.0
30.790454697,4907.0
30.807165966,4886.0
30.823877235,4756.0
30.840588504,4882.0
30.857299773,4821.0
30.874011042,4904.0
30.890722311,4822.0
30.907433580,4760.0
30.924144849,4957.0
30.940856118,4928.0
30.957567387,4921.0
30.974278656,4810.0
30.990989925,4916.0
31.007701194,4841.0
31.024412463,4770.0
31.041123732,4827.0
31.057835000,4899.0
31.074546269,4956.0
31.091257538,4946.0
31.107968807,4830.0
31.124680076,4876.0
31.141391345,5049.0
31.158102614,4866.0
31.174813883,4832.0
31.191525152,4835.0
31.208236421,4947.0
31.224947690,4917.0
31.241658959,4956.0
31.258370228,4896.0
31.275081497,4889.0
31.291792766,4804.0
31.308504035,4926.0
31.325215304,4985.0
31.341926573,4820.0
31.358637842,4998.0
31.375349111,5071.0
31.392060380,4988.0
31.408771649,4962.0
31.425482918,4798.0
31.442194187,4837.0
31.458905456,4863.0
31.475616725,4831.0
31.492327994,4937.0
31.509039263,4966.0
31.525750532,4934.0
31.542461801,4895.0
31.559173070,4839.0
31.575884339,4863.0
31.592595608,4905.0
31.609306877,4757.0
31.626018146,4878.0
31.642729415,4942.0
31.659440684,4947.0
31.676151953,4914.0
31.692863222,5003.0
31.709574491,5044.0
31.726285760,4935.0
31.742997029,4949.0
31.759708298,4909.0
31.776419567,4895.0
31.793130836,4960.0
31.809842105,4859.0
31.826553374,4934.0
31.843264643,4928.0
31.859975912,4834.0
31.876687180,4921.0
31.893398449,4856.0
31.910109718,4987.0
31.926820987,4956.0
31.943532256,4933.0
31.960243525,5053.0
31.976954794,5025.0
31.993666063,4956.0
32.010377332,4938.0
32.027088601,4868.0
32.043799870,4966.0
32.060511139,4934.0
32.077222408,4923.0
32.093933677,4892.0
32.110644946,4989.0
32.127356215,4930.0
32.144067484,4919.0
32.160778753,4991.0
32.177490022,4985.0
32.194201291,5038.0
32.210912560,4942.0
32.227623829,5154.0
32.244335098,4778.0
32.261046367,5070.0
32.277757636,5097.0
32.294468905,5059.0
32.311180174,5025.0
32.327891443,4999.0
32.344602712,5051.0
32.361313981,5005.0
32.378025250,5052.0
32.394736519,4990.0
32.411447788,5038.0
32.428159057,5088.0
32.444870326,5004.0
32.461581595,5175.0
32.478292864,4989.0
32.495004133,5118.0
32.511715402,4953.0
32.528426671,4950.0
32.545137940,4910.0
32.561849209,4947.0
32.578560478,5101.0
32.595271747,4959.0
32.611983016,4981.0
32.628694285,5028.0
32.645405554,5005.0
32.662116823,5103.0
32.678828091,5156.0
32.695539360,5048.0
32.712250629,5079.0
32.728961898,4988.0
32.745673167,5146.0
32.762384436,5099.0
32.779095705,5047.0
32.795806974,4944.0
32.812518243,5013.0
32.829229512,5026.0
32.845940781,5088.0
32.862652050,4955.0
32.879363319,5204.0
32.896074588,5070.0
32.912785857,5062.0
32.929497126,4974.0
32.946208395,4959.0
32.962919664,4979.0
32.979630933,4974.0
32.996342202,4887.0
33.013053471,4981.0
33.029764740,4818.0
33.046476009,4924.0
33.063187278,4939.0
33.079898547,4992.0
33.096609816,4943.0
33.113321085,5120.0
33.130032354,4980.0
33.146743623,4998.0
33.163454892,4978.0
33.180166161,4999.0
33.196877430,4978.0
33.213588699,5069.0
33.230299968,4927.0
33.247011237,5081.0
33.263722506,4976.0
33.280433775,4998.0
33.297145044,5028.0
33.313856313,4956.0
33.330567582,5086.0
33.347278851,4788.0
33.363990120,4989.0
33.380701389,5074.0
33.397412658,5029.0
33.414123927,5028.0
33.430835196,5034.0
33.447546465,4959.0
33.464257734,5044.0
33.480969002,5111.0
33.497680271,5036.0
33.514391540,5055.0
33.531102809,4965.0
33.547814078,4906.0
33.564525347,4814.0
33.581236616,5043.0
33.597947885,5016.0
33.614659154,4964.0
33.631370423,4949.0
33.648081692,4865.0
33.664792961,5028.0
33.681504230,4943.0
33.698215499,4974.0
33.714926768,5011.0
33.731638037,5015.0
33.748349306,5158.0
33.765060575,5056.0
33.781771844,5000.0
33.798483113,4994.0
33.815194382,4936.0
33.831905651,5062.0
33.848616920,5029.0
33.865328189,5099.0
33.882039458,4952.0
33.898750727,5016.0
33.915461996,4959.0
33.932173265,4999.0
33.948884534,4993.0
33.965595803,5021.0
33.982307072,4989.0
33.999018341,5109.0
34.015729610,5106.0
34.032440879,4909.0
34.049152148,5131.0
34.065863417,4960.0
34.082574686,5037.0
34.099285955,4928.0
34.115997224,5081.0
34.132708493,5078.0
34.149419762,4911.0
34.166131031,5184.0
34.182842300,5097.0
34.199553569,5101.0
34.216264838,4973.0
34.232976107,5045.0
34.249687376,5028.0
34.266398645,5101.0
34.283109913,5171.0
34.299821182,4945.0
34.316532451,5013.0
34.333243720,5132.0
34.349954989,5041.0
34.366666258,5103.0
34.383377527,5111.0
34.400088796,5037.0
34.416800065,4990.0
34.433511334,5006.0
34.450222603,4959.0
34.466933872,5050.0
34.483645141,5015.0
34.500356410,5118.0
34.517067679,4991.0
34.533778948,5116.0
34.550490217,5031.0
34.567201486,5093.0
34.583912755,5111.0
34.600624024,5107.0
34.617335293,5127.0
34.634046562,5066.0
34.650757831,5098.0
34.667469100,5110.0
34.684180369,5186.0
34.700891638,5168.0
34.717602907,5069.0
34.734314176,5225.0
34.751025445,5099.0
34.767736714,5040.0
34.784447983,5100.0
34.801159252,5221.0
34.817870521,5167.0
34.834581790,5098.0
34.851293059,5070.0
34.868004328,5212.0
34.884715597,5194.0
34.901426866,5198.0
34.918138135,5179.0
34.934849404,5303.0
34.951560673,5192.0
34.968271942,5152.0
34.984983211,5429.0
35.001694480,5342.0
35.018405749,5275.0
35.035117018,5337.0
35.051828287,5429.0
35.068539556,5476.0
35.085250825,5377.0
35.101962093,5517.0
35.118673362,5548.0
35.135384631,5433.0
35.152095900,5649.0
35.168807169,5622.0
35.185518438,5649.0
35.202229707,5908.0
35.218940976,5792.0
35.235652245,5786.0
35.252363514,5824.0
35.269074783,5815.0
35.285786052,6034.0
35.302497321,6207.0
35.319208590,6022.0
35.335919859,6158.0
35.352631128,6053.0
35.369342397,6286.0
35.386053666,6283.0
35.402764935,6333.0
35.419476204,6273.0
35.436187473,6510.0
35.452898742,6396.0
35.469610011,6479.0
35.486321280,6421.0
35.503032549,6444.0
35.519743818,6327.0
35.536455087,6527.0
35.553166356,6417.0
35.569877625,6521.0
35.586588894,6381.0
35.603300163,6312.0
35.620011432,6267.0
35.636722701,6233.0
35.653433970,6225.0
35.670145239,6217.0
35.686856508,6117.0
35.703567777,6006.0
35.720279046,5979.0
35.736990315,6049.0
35.753701584,6116.0
35.770412853,6012.0
35.787124122,6043.0
35.803835391,6091.0
35.820546660,6104.0
35.837257929,6088.0
35.853969198,6149.0
35.870680467,6244.0
35.887391736,6255.0
35.904103004,6710.0
35.920814273,6608.0
35.937525542,6803.0
35.954236811,6804.0
35.970948080,7305.0
35.987659349,7565.0
36.004370618,7915.0
36.021081887,8425.0
36.037793156,9113.0
36.054504425,9515.0
36.071215694,10329.0
36.087926963,11131.0
36.104638232,12232.0
36.121349501,13626.0
36.138060770,14600.0
36.154772039,16210.0
36.171483308,17685.0
36.188194577,19486.0
36.204905846,21306.0
36.221617115,23556.0
36.238328384,25339.0
36.255039653,27685.0
36.271750922,30112.0
36.288462191,31930.0
36.305173460,34557.0
36.321884729,36587.0
36.338595998,38863.0
36.355307267,41101.0
36.372018536,42605.0
36.388729805,44207.0
36.405441074,45804.0
36.422152343,46358.0
36.438863612,46018.0
36.455574881,45827.0
36.472286150,44717.0
36.488997419,43130.0
36.505708688,41172.0
36.522419957,38617.0
36.539131226,35249.0
36.555842495,31997.0
36.572553764,28939.0
36.589265033,25723.0
36.605976302,22792.0
36.622687571,19698.0
36.639398840,17019.0
36.656110109,15037.0
36.672821378,13248.0
36.689532647,11588.0
36.706243915,10110.0
36.722955184,9055.0
36.739666453,8513.0
36.756377722,7723.0
36.773088991,7352.0
36.789800260,7067.0
36.806511529,6846.0
36.823222798,6733.0
36.839934067,6408.0
36.856645336,6276.0
36.873356605,6290.0
36.890067874,5979.0
36.906779143,6089.0
36.923490412,5772.0
36.940201681,5794.0
36.956912950,5884.0
36.973624219,5774.0
36.990335488,5700.0
37.007046757,5810.0
37.023758026,5808.0
37.040469295,5668.0
37.057180564,5855.0
37.073891833,5760.0
37.090603102,5595.0
37.107314371,5622.0
37.124025640,5585.0
37.140736909,5591.0
37.157448178,5726.0
37.174159447,5509.0
37.190870716,5598.0
37.207581985,5527.0
37.224293254,5753.0
37.241004523,5630.0
37.257715792,5529.0
37.274427061,5571.0
37.291138330,5497.0
37.307849599,5666.0
37.324560868,5483.0
37.341272137,5470.0
37.357983406,5621.0
37.374694675,5540.0
37.391405944,5430.0
37.408117213,5515.0
37.424828482,5576.0
37.441539751,5576.0
37.458251020,5447.0
37.474962289,5538.0
37.491673558,5496.0
37.508384826,5500.0
37.525096095,5490.0
37.541807364,5338.0
37.558518633,5395.0
37.575229902,5441.0
37.591941171,5442.0
37.608652440,5286.0
37.625363709,5376.0
37.642074978,5532.0
37.658786247,5487.0
37.675497516,5228.0
37.692208785,5514.0
37.708920054,5481.0
37.725631323,5527.0
37.742342592,5446.0
37.759053861,5611.0
37.775765130,5490.0
37.792476399,5446.0
37.809187668,5396.0
37.825898937,5498.0
37.842610206,5599.0
37.859321475,5417.0
37.876032744,5377.0
37.892744013,5478.0
37.909455282,5408.0
37.926166551,5462.0
37.942877820,5439.0
37.959589089,5400.0
37.976300358,5406.0
37.993011627,5452.0
38.009722896,5453.0
38.026434165,5406.0
38.043145434,5510.0
38.059856703,5332.0
38.076567972,5396.0
38.093279241,5415.0
38.109990510,5451.0
38.126701779,5457.0
38.143413048,5551.0
38.160124317,5624.0
38.176835586,5448.0
38.193546855,5448.0
38.210258124,5650.0
38.226969393,5371.0
38.243680662,5545.0
38.260391931,5713.0
38.277103200,5584.0
38.293814469,5607.0
38.310525738,5703.0
38.327237006,5654.0
38.343948275,5608.0
38.360659544,5857.0
38.377370813,5687.0
38.394082082,5678.0
38.410793351,5681.0
38.427504620,5701.0
38.444215889,5801.0
38.460927158,5737.0
38.477638427,5644.0
38.494349696,5926.0
38.511060965,5816.0
38.527772234,5859.0
38.544483503,5883.0
38.561194772,5943.0
38.577906041,5944.0
38.594617310,5781.0
38.611328579,5875.0
38.628039848,5877.0
38.644751117,5983.0
38.661462386,6076.0
38.678173655,5952.0
38.694884924,6034.0
38.711596193,5988.0
38.728307462,6010.0
38.745018731,5997.0
38.761730000,5965.0
38.778441269,5859.0
38.795152538,5740.0
38.811863807,5804.0
38.828575076,5833.0
38.845286345,5845.0
38.861997614,5657.0
38.878708883,5587.0
38.895420152,5397.0
38.912131421,5704.0
38.928842690,5600.0
38.945553959,5634.0
38.962265228,5461.0
38.978976497,5568.0
38.995687766,5554.0
39.012399035,5378.0
39.029110304,5318.0
39.045821573,5460.0
39.062532842,5363.0
39.079244111,5571.0
39.095955380,5415.0
39.112666649,5349.0
39.129377917,5388.0
39.146089186,5386.0
39.162800455,5318.0
39.179511724,5354.0
39.196222993,5486.0
39.212934262,5253.0
39.229645531,5360.0
39.246356800,5309.0
39.263068069,5310.0
39.279779338,5424.0
39.296490607,5340.0
39.313201876,5355.0
39.329913145,5338.0
39.346624414,5236.0
39.363335683,5286.0
39.380046952,5425.0
39.396758221,5487.0
39.413469490,5322.0
39.430180759,5261.0
39.446892028,5135.0
39.463603297,5174.0
39.480314566,5201.0
39.497025835,5470.0
39.513737104,5346.0
39.530448373,5137.0
39.547159642,5326.0
39.563870911,5403.0
39.580582180,5312.0
39.597293449,5292.0
39.614004718,5220.0
39.630715987,5433.0
39.647427256,5349.0
39.664138525,5253.0
39.680849794,5182.0
39.697561063,5302.0
39.714272332,5293.0
39.730983601,5270.0
39.747694870,5263.0
39.764406139,5217.0
39.781117408,5081.0
39.797828677,5315.0
39.814539946,5191.0
39.831251215,5317.0
39.847962484,5219.0
39.864673753,5295.0
39.881385022,5240.0
39.898096291,5146.0
39.914807560,5247.0
39.931518828,5281.0
39.948230097,5276.0
39.964941366,5264.0
39.981652635,5280.0
39.998363904,5091.0
40.015075173,5192.0
40.031786442,5221.0
40.048497711,5178.0
40.065208980,5325.0
40.081920249,5171.0
40.098631518,5214.0
40.115342787,5171.0
40.132054056,5200.0
40.148765325,5025.0
40.165476594,5294.0
40.182187863,5294.0
40.198899132,5184.0
40.215610401,5177.0
40.232321670,5082.0
40.249032939,5311.0
40.265744208,5252.0
40.282455477,5306.0
40.299166746,5153.0
40.315878015,5250.0
40.332589284,5272.0
40.349300553,5144.0
40.366011822,5249.0
40.382723091,5330.0
40.399434360,5227.0
40.416145629,5228.0
40.432856898,5214.0
40.449568167,5175.0
40.466279436,5253.0
40.482990705,5208.0
40.499701974,5151.0
40.516413243,5127.0
40.533124512,5160.0
40.549835781,5200.0
40.566547050,5382.0
40.583258319,5101.0
40.599969588,5250.0
40.616680857,5189.0
40.633392126,5128.0
40.650103395,5286.0
40.666814664,5291.0
40.683525933,5274.0
40.700237202,5205.0
40.716948471,5248.0
40.733659739,5293.0
40.750371008,5312.0
40.767082277,5287.0
40.783793546,5309.0
40.800504815,5293.0
40.817216084,5346.0
40.833927353,5263.0
40.850638622,5417.0
40.867349891,5309.0
40.884061160,5107.0
40.900772429,5288.0
40.917483698,5299.0
40.934194967,5328.0
40.950906236,5325.0
40.967617505,5354.0
40.984328774,5128.0
41.001040043,5173.0
41.017751312,5277.0
41.034462581,5290.0
41.051173850,5255.0
41.067885119,5252.0
41.084596388,5402.0
41.101307657,5289.0
41.118018926,5244.0
41.134730195,5180.0
41.151441464,5226.0
41.168152733,5393.0
41.184864002,5367.0
41.201575271,5384.0
41.218286540,5350.0
41.234997809,5183.0
41.251709078,5342.0
41.268420347,5262.0
41.285131616,5525.0
41.301842885,5453.0
41.318554154,5381.0
41.335265423,5328.0
41.351976692,5376.0
41.368687961,5580.0
41.385399230,5596.0
41.402110499,5413.0
41.418821768,5636.0
41.435533037,5450.0
41.452244306,5506.0
41.468955575,5498.0
41.485666844,5472.0
41.502378113,5553.0
41.519089382,5657.0
41.535800651,5594.0
41.552511919,5893.0
41.569223188,5855.0
41.585934457,5855.0
41.602645726,5896.0
41.619356995,5900.0
41.636068264,5870.0
41.652779533,5991.0
41.669490802,6116.0
41.686202071,6069.0
41.702913340,6281.0
41.719624609,6039.0
41.736335878,6341.0
41.753047147,6662.0
41.769758416,6566.0
41.786469685,6931.0
41.803180954,6891.0
41.819892223,7048.0
41.836603492,7246.0
41.853314761,7410.0
41.870026030,7881.0
41.886737299,8231.0
41.903448568,8459.0
41.920159837,8685.0
41.936871106,9096.0
41.953582375,9236.0
41.970293644,9642.0
41.987004913,10254.0
42.003716182,10575.0
42.020427451,10932.0
42.037138720,11354.0
42.053849989,11973.0
42.070561258,12229.0
42.087272527,12825.0
42.103983796,13273.0
42.120695065,13793.0
42.137406334,13929.0
42.154117603,14380.0
42.170828872,14672.0
42.187540141,14962.0
42.204251410,15008.0
42.220962679,15160.0
42.237673948,15510.0
42.254385217,15208.0
42.271096486,14938.0
42.287807755,14561.0
42.304519024,14652.0
42.321230293,14097.0
42.337941562,13816.0
42.354652830,13226.0
42.371364099,12963.0
42.388075368,12091.0
42.404786637,11884.0
42.421497906,11298.0
42.438209175,10953.0
42.454920444,10488.0
42.471631713,10045.0
42.488342982,9666.0
42.505054251,9000.0
42.521765520,8848.0
42.538476789,8415.0
42.555188058,7932.0
42.571899327,7968.0
42.588610596,7741.0
42.605321865,7736.0
42.622033134,7703.0
42.638744403,7890.0
42.655455672,7772.0
42.672166941,8046.0
42.688878210,8371.0
42.705589479,8978.0
42.722300748,9774.0
42.739012017,10728.0
42.755723286,12483.0
42.772434555,14071.0
42.789145824,15644.0
42.805857093,17218.0
42.822568362,19733.0
42.839279631,23695.0
42.855990900,27738.0
42.872702169,31962.0
42.889413438,35993.0
42.906124707,40571.0
42.922835976,44065.0
42.939547245,46764.0
42.956258514,49276.0
42.972969783,52228.0
42.989681052,55347.0
43.006392321,57048.0
43.023103590,60204.0
43.039814859,63851.0
43.056526128,66741.0
43.073237397,69365.0
43.089948666,75171.0
43.106659935,81155.0
43.123371204,79263.0
43.140082473,67180.0
43.156793741,53366.0
43.173505010,44708.0
43.190216279,39355.0
43.206927548,37767.0
43.223638817,36963.0
43.240350086,33648.0
43.257061355,26315.0
43.273772624,19120.0
43.290483893,14453.0
43.307195162,11329.0
43.323906431,9161.0
43.340617700,7929.0
43.357328969,7449.0
43.374040238,7219.0
43.390751507,6852.0
43.407462776,6590.0
43.424174045,6574.0
43.440885314,6537.0
43.457596583,6410.0
43.474307852,6251.0
43.491019121,6075.0
43.507730390,6002.0
43.524441659,5882.0
43.541152928,5911.0
43.557864197,5839.0
43.574575466,5678.0
43.591286735,5742.0
43.607998004,5730.0
43.624709273,5944.0
43.641420542,5694.0
43.658131811,5609.0
43.674843080,5774.0
43.691554349,5595.0
43.708265618,5649.0
43.724976887,5615.0
43.741688156,5482.0
43.758399425,5632.0
43.775110694,5747.0
43.791821963,5533.0
43.808533232,5670.0
43.825244501,5707.0
43.841955770,5586.0
43.858667039,5595.0
43.875378308,5623.0
43.892089577,5379.0
43.908800846,5577.0
43.925512115,5518.0
43.942223384,5554.0
43.958934652,5486.0
43.975645921,5540.0
43.992357190,5424.0
44.009068459,5434.0
44.025779728,5329.0
44.042490997,5538.0
44.059202266,5423.0
44.075913535,5512.0
44.092624804,5366.0
44.109336073,5336.0
44.126047342,5448.0
44.142758611,5399.0
44.159469880,5302.0
44.176181149,5427.0
44.192892418,5571.0
44.209603687,5483.0
44.226314956,5452.0
44.243026225,5450.0
44.259737494,5518.0
44.276448763,5502.0
44.293160032,5350.0
44.309871301,5408.0
44.326582570,5469.0
44.343293839,5376.0
44.360005108,5384.0
44.376716377,5518.0
44.393427646,5264.0
44.410138915,5404.0
44.426850184,5463.0
44.443561453,5435.0
44.460272722,5295.0
44.476983991,5427.0
44.493695260,5315.0
44.510406529,5308.0
44.527117798,5300.0
44.543829067,5348.0
44.560540336,5412.0
44.577251605,5318.0
44.593962874,5225.0
44.610674143,5361.0
44.627385412,5204.0
44.644096681,5456.0
44.660807950,5295.0
44.677519219,5188.0
44.694230488,5322.0
44.710941757,5366.0
44.727653026,5237.0
44.744364295,5299.0
44.761075564,5202.0
44.777786832,5358.0
44.794498101,5289.0
44.811209370,5435.0
44.827920639,5359.0
44.844631908,5359.0
44.861343177,5506.0
44.878054446,5327.0
44.894765715,5455.0
44.911476984,5332.0
44.928188253,5418.0
44.944899522,5487.0
44.961610791,5443.0
44.978322060,5425.0
44.995033329,5420.0
45.011744598,5463.0
45.028455867,5409.0
45.045167136,5424.0
45.061878405,5389.0
45.078589674,5459.0
45.095300943,5631.0
45.112012212,5385.0
45.128723481,5344.0
45.145434750,5416.0
45.162146019,5308.0
45.178857288,5325.0
45.195568557,5417.0
45.212279826,5281.0
45.228991095,5405.0
45.245702364,5275.0
45.262413633,5245.0
45.279124902,5189.0
45.295836171,5271.0
45.312547440,5263.0
45.329258709,5300.0
45.345969978,5257.0
45.362681247,5240.0
45.379392516,5299.0
45.396103785,5383.0
45.412815054,5324.0
45.429526323,5174.0
45.446237592,5349.0
45.462948861,5252.0
45.479660130,5212.0
45.496371399,5229.0
45.513082668,5222.0
45.529793937,5260.0
45.546505206,5193.0
45.563216475,5183.0
45.579927743,5265.0
45.596639012,5226.0
45.613350281,5237.0
45.630061550,5233.0
45.646772819,5298.0
45.663484088,5368.0
45.680195357,5270.0
45.696906626,5268.0
45.713617895,5093.0
45.730329164,5263.0
45.747040433,5262.0
45.763751702,5232.0
45.780462971,5216.0
45.797174240,5232.0
45.813885509,5214.0
45.830596778,5220.0
45.847308047,5225.0
45.864019316,5250.0
45.880730585,5283.0
45.897441854,5222.0
45.914153123,5080.0
45.930864392,5267.0
45.947575661,5287.0
45.964286930,5073.0
45.980998199,5252.0
45.997709468,5091.0
46.014420737,5277.0
46.031132006,5234.0
46.047843275,5225.0
46.064554544,5388.0
46.081265813,5220.0
46.097977082,5292.0
46.114688351,5078.0
46.131399620,5219.0
46.148110889,5071.0
46.164822158,5107.0
46.181533427,5019.0
46.198244696,5197.0
46.214955965,5295.0
46.231667234,5306.0
46.248378503,5143.0
46.265089772,5312.0
46.281801041,5391.0
46.298512310,5314.0
46.315223579,5453.0
46.331934848,5441.0
46.348646117,5402.0
46.365357386,5462.0
46.382068654,5278.0
46.398779923,5202.0
46.415491192,5121.0
46.432202461,5243.0
46.448913730,5256.0
46.465624999,5283.0
46.482336268,5388.0
46.499047537,5275.0
46.515758806,5323.0
46.532470075,5340.0
46.549181344,5215.0
46.565892613,5064.0
46.582603882,5327.0
46.599315151,5154.0
46.616026420,5314.0
46.632737689,5217.0
46.649448958,5262.0
46.666160227,5097.0
46.682871496,5328.0
46.699582765,5209.0
46.716294034,5179.0
46.733005303,5153.0
46.749716572,5134.0
46.766427841,5065.0
46.783139110,5153.0
46.799850379,5142.0
46.816561648,5092.0
46.833272917,5177.0
46.849984186,5141.0
46.866695455,5356.0
46.883406724,5148.0
46.900117993,5225.0
46.916829262,5176.0
46.933540531,5056.0
46.950251800,5094.0
46.966963069,5168.0
46.983674338,5181.0
47.000385607,5126.0
47.017096876,5185.0
47.033808145,5163.0
47.050519414,5104.0
47.067230683,5211.0
47.083941952,5057.0
47.100653221,5037.0
47.117364490,5036.0
47.134075759,5063.0
47.150787028,5093.0
47.167498297,5033.0
47.184209565,5137.0
47.200920834,5082.0
47.217632103,5036.0
47.234343372,5034.0
47.251054641,5055.0
47.267765910,5004.0
47.284477179,5005.0
47.301188448,5062.0
47.317899717,5064.0
47.334610986,5138.0
47.351322255,5046.0
47.368033524,5000.0
47.384744793,5106.0
47.401456062,5032.0
47.418167331,5025.0
47.434878600,5135.0
47.451589869,5082.0
47.468301138,5067.0
47.485012407,5015.0
47.501723676,5128.0
47.518434945,5141.0
47.535146214,5176.0
47.551857483,5029.0
47.568568752,5246.0
47.585280021,5115.0
47.601991290,5161.0
47.618702559,5047.0
47.635413828,5108.0
47.652125097,5109.0
47.668836366,4983.0
47.685547635,5113.0
47.702258904,5109.0
47.718970173,5077.0
47.735681442,5051.0
47.752392711,4980.0
47.769103980,5112.0
47.785815249,4968.0
47.802526518,4993.0
47.819237787,4942.0
47.835949056,4965.0
47.852660325,5107.0
47.869371594,4952.0
47.886082863,5034.0
47.902794132,5022.0
47.919505401,5204.0
47.936216670,5099.0
47.952927939,5047.0
47.969639208,5112.0
47.986350477,5076.0
48.003061745,5131.0
48.019773014,5032.0
48.036484283,5105.0
48.053195552,5180.0
48.069906821,5142.0
48.086618090,5068.0
48.103329359,5146.0
48.120040628,5171.0
48.136751897,5206.0
48.153463166,5126.0
48.170174435,5156.0
48.186885704,5154.0
48.203596973,5171.0
48.220308242,5156.0
48.237019511,5113.0
48.253730780,5122.0
48.270442049,5329.0
48.287153318,5404.0
48.303864587,5324.0
48.320575856,5341.0
48.337287125,5337.0
48.353998394,5350.0
48.370709663,5386.0
48.387420932,5456.0
48.404132201,5446.0
48.420843470,5425.0
48.437554739,5518.0
48.454266008,5497.0
48.470977277,5665.0
48.487688546,5566.0
48.504399815,5510.0
48.521111084,5569.0
48.537822353,5516.0
48.554533622,5544.0
48.571244891,5660.0
48.587956160,5598.0
48.604667429,5580.0
48.621378698,5587.0
48.638089967,5774.0
48.654801236,5639.0
48.671512505,5650.0
48.688223774,5753.0
48.704935043,5678.0
48.721646312,5638.0
48.738357581,5784.0
48.755068850,5644.0
48.771780119,5732.0
48.788491388,5694.0
48.805202656,5687.0
48.821913925,5656.0
48.838625194,5589.0
48.855336463,5500.0
48.872047732,5575.0
48.888759001,5450.0
48.905470270,5615.0
48.922181539,5488.0
48.938892808,5495.0
48.955604077,5423.0
48.972315346,5416.0
48.989026615,5419.0
49.005737884,5489.0
49.022449153,5426.0
49.039160422,5526.0
49.055871691,5342.0
49.072582960,5427.0
49.089294229,5429.0
49.106005498,5385.0
49.122716767,5304.0
49.139428036,5321.0
49.156139305,5373.0
49.172850574,5487.0
49.189561843,5402.0
49.206273112,5235.0
49.222984381,5417.0
49.239695650,5379.0
49.256406919,5496.0
49.273118188,5459.0
49.289829457,5494.0
49.306540726,5316.0
49.323251995,5477.0
49.339963264,5505.0
49.356674533,5447.0
49.373385802,5398.0
49.390097071,5471.0
49.406808340,5501.0
49.423519609,5360.0
49.440230878,5456.0
49.456942147,5471.0
49.473653416,5449.0
49.490364685,5451.0
49.507075954,5495.0
49.523787223,5517.0
49.540498492,5547.0
49.557209761,5575.0
49.573921030,5533.0
49.590632299,5537.0
49.607343567,5480.0
49.624054836,5792.0
49.640766105,5548.0
49.657477374,5715.0
49.674188643,5851.0
49.690899912,6042.0
49.707611181,6003.0
49.724322450,6249.0
49.741033719,6356.0
49.757744988,6494.0
49.774456257,6855.0
49.791167526,7525.0
49.807878795,8036.0
49.824590064,8772.0
49.841301333,9670.0
49.858012602,10593.0
49.874723871,12009.0
49.891435140,13457.0
49.908146409,15608.0
49.924857678,18465.0
49.941568947,21718.0
49.958280216,25873.0
49.974991485,30561.0
49.991702754,34759.0
50.008414023,38635.0
50.025125292,42152.0
50.041836561,44149.0
50.058547830,47105.0
50.075259099,49388.0
50.091970368,52872.0
50.108681637,56063.0
50.125392906,61251.0
50.142104175,66531.0
50.158815444,70812.0
50.175526713,75488.0
50.192237982,78310.0
50.208949251,75188.0
50.225660520,65448.0
50.242371789,51640.0
50.259083058,41201.0
50.275794327,36571.0
50.292505596,35098.0
50.309216865,35017.0
50.325928134,35045.0
50.342639403,32492.0
50.359350672,26938.0
50.376061941,19796.0
50.392773210,14061.0
50.409484478,10596.0
50.426195747,8977.0
50.442907016,7952.0
50.459618285,7234.0
50.476329554,6823.0
50.493040823,6510.0
50.509752092,6363.0
50.526463361,6319.0
50.543174630,6085.0
50.559885899,5915.0
50.576597168,5986.0
50.593308437,5886.0
50.610019706,5654.0
50.626730975,5747.0
50.643442244,5457.0
50.660153513,5598.0
50.676864782,5607.0
50.693576051,5639.0
50.710287320,5450.0
50.726998589,5484.0
50.743709858,5357.0
50.760421127,5477.0
50.777132396,5361.0
50.793843665,5427.0
50.810554934,5395.0
50.827266203,5283.0
50.843977472,5357.0
50.860688741,5208.0
50.877400010,5314.0
50.894111279,5376.0
50.910822548,5321.0
50.927533817,5397.0
50.944245086,5189.0
50.960956355,5173.0
50.977667624,5284.0
50.994378893,5330.0
51.011090162,5370.0
51.027801431,5336.0
51.044512700,5346.0
51.061223969,5220.0
51.077935238,5324.0
51.094646507,5082.0
51.111357776,5348.0
51.128069045,5229.0
51.144780314,5168.0
51.161491583,5183.0
51.178202852,5130.0
51.194914121,5225.0
51.211625390,5191.0
51.228336658,5128.0
51.245047927,5255.0
51.261759196,5026.0
51.278470465,5095.0
51.295181734,5095.0
51.311893003,5128.0
51.328604272,5250.0
51.345315541,5146.0
51.362026810,5206.0
51.378738079,5005.0
51.395449348,5118.0
51.412160617,5151.0
51.428871886,5094.0
51.445583155,5035.0
51.462294424,5130.0
51.479005693,5119.0
51.495716962,5206.0
51.512428231,5220.0
51.529139500,5153.0
51.545850769,5121.0
51.562562038,5223.0
51.579273307,5142.0
51.595984576,5098.0
51.612695845,5247.0
51.629407114,5095.0
51.646118383,5082.0
51.662829652,5195.0
51.679540921,4949.0
51.696252190,5033.0
51.712963459,5022.0
51.729674728,5011.0
51.746385997,5239.0
51.763097266,5082.0
51.779808535,5084.0
51.796519804,5036.0
51.813231073,5030.0
51.829942342,5072.0
51.846653611,5075.0
51.863364880,5022.0
51.880076149,4979.0
51.896787418,4969.0
51.913498687,5112.0
51.930209956,5064.0
51.946921225,5116.0
51.963632494,5170.0
51.980343763,5012.0
51.997055032,5031.0
52.013766301,5027.0
52.030477569,5087.0
52.047188838,5156.0
52.063900107,5170.0
52.080611376,5078.0
52.097322645,5162.0
52.114033914,5229.0
52.130745183,5181.0
52.147456452,5018.0
52.164167721,5232.0
52.180878990,5072.0
52.197590259,5205.0
52.214301528,5252.0
52.231012797,5268.0
52.247724066,5111.0
52.264435335,5315.0
52.281146604,5257.0
52.297857873,5322.0
52.314569142,5241.0
52.331280411,5348.0
52.347991680,5324.0
52.364702949,5372.0
52.381414218,5181.0
52.398125487,5300.0
52.414836756,5406.0
52.431548025,5436.0
52.448259294,5360.0
52.464970563,5202.0
52.481681832,5341.0
52.498393101,5306.0
52.515104370,5252.0
52.531815639,5297.0
52.548526908,5238.0
52.565238177,5314.0
52.581949446,5113.0
52.598660715,5272.0
52.615371984,5179.0
52.632083253,5275.0
52.648794522,5118.0
52.665505791,5201.0
52.682217060,5079.0
52.698928329,5007.0
52.715639598,5124.0
52.732350867,5042.0
52.749062136,5097.0
52.765773405,5125.0
52.782484674,5104.0
52.799195943,5048.0
52.815907212,5015.0
52.832618480,4933.0
52.849329749,4896.0
52.866041018,5148.0
52.882752287,5030.0
52.899463556,5041.0
52.916174825,5043.0
52.932886094,4940.0
52.949597363,4903.0
52.966308632,4783.0
52.983019901,4892.0
52.999731170,4868.0
53.016442439,5056.0
53.033153708,4961.0
53.049864977,4924.0
53.066576246,5078.0
53.083287515,4965.0
53.099998784,4883.0
53.116710053,4921.0
53.133421322,4770.0
53.150132591,4897.0
53.166843860,4947.0
53.183555129,4932.0
53.200266398,4960.0
53.216977667,4959.0
53.233688936,4909.0
53.250400205,5080.0
53.267111474,5056.0
53.283822743,5061.0
53.300534012,4922.0
53.317245281,4899.0
53.333956550,4950.0
53.350667819,4978.0
53.367379088,4930.0
53.384090357,4977.0
53.400801626,5029.0
53.417512895,5052.0
53.434224164,4847.0
53.450935433,5053.0
53.467646702,4877.0
53.484357971,4930.0
53.501069240,4850.0
53.517780509,4950.0
53.534491778,4969.0
53.551203047,4966.0
53.567914316,4948.0
53.584625585,4971.0
53.601336854,5041.0
53.618048123,5080.0
53.634759391,5058.0
53.651470660,4825.0
53.668181929,4869.0
53.684893198,4957.0
53.701604467,4881.0
53.718315736,4753.0
53.735027005,4863.0
53.751738274,4937.0
53.768449543,4842.0
53.785160812,4955.0
53.801872081,4787.0
53.818583350,4969.0
53.835294619,5021.0
53.852005888,4944.0
53.868717157,4915.0
53.885428426,4917.0
53.902139695,5011.0
53.918850964,4907.0
53.935562233,4839.0
53.952273502,4948.0
53.968984771,5053.0
53.985696040,4926.0
54.002407309,4903.0
54.019118578,4952.0
54.035829847,4853.0
54.052541116,4944.0
54.069252385,4884.0
54.085963654,4945.0
54.102674923,4987.0
54.119386192,4796.0
54.136097461,4824.0
54.152808730,5003.0
54.169519999,4848.0
54.186231268,4877.0
54.202942537,5003.0
54.219653806,4953.0
54.236365075,4935.0
54.253076344,4950.0
54.269787613,4998.0
54.286498882,4859.0
54.303210151,4994.0
54.319921420,5079.0
54.336632689,5013.0
54.353343958,5189.0
54.370055227,5012.0
54.386766496,4943.0
54.403477765,4905.0
54.420189034,5011.0
54.436900303,4852.0
54.453611571,4866.0
54.470322840,4962.0
54.487034109,4960.0
54.503745378,4952.0
54.520456647,4838.0
54.537167916,5018.0
54.553879185,4975.0
54.570590454,4962.0
54.587301723,4961.0
54.604012992,4994.0
54.620724261,4916.0
54.637435530,4910.0
54.654146799,4830.0
54.670858068,4993.0
54.687569337,4848.0
54.704280606,4978.0
54.720991875,4899.0
54.737703144,4986.0
54.754414413,4922.0
54.771125682,4992.0
54.787836951,5058.0
54.804548220,4999.0
54.821259489,4928.0
54.837970758,4888.0
54.854682027,4829.0
54.871393296,4941.0
54.888104565,4930.0
54.904815834,5014.0
54.921527103,4921.0
54.938238372,4763.0
54.954949641,4757.0
54.971660910,4875.0
54.988372179,4913.0
55.005083448,4890.0
55.021794717,4789.0
55.038505986,4786.0
55.055217255,4840.0
55.071928524,4793.0
55.088639793,4760.0
55.105351062,4879.0
55.122062331,4860.0
55.138773600,4835.0
55.155484869,4862.0
55.172196138,4974.0
55.188907407,4821.0
55.205618676,4946.0
55.222329945,4896.0
55.239041214,4871.0
55.255752482,4909.0
55.272463751,4869.0
55.289175020,4902.0
55.305886289,4847.0
55.322597558,4889.0
55.339308827,4952.0
55.356020096,4839.0
55.372731365,4891.0
55.389442634,4910.0
55.406153903,4936.0
55.422865172,4801.0
55.439576441,4754.0
55.456287710,4885.0
55.472998979,4809.0
55.489710248,4830.0
55.506421517,4808.0
55.523132786,4852.0
55.539844055,4807.0
55.556555324,4895.0
55.573266593,4919.0
55.589977862,4780.0
55.606689131,4801.0
55.623400400,4743.0
55.640111669,4921.0
55.656822938,4910.0
55.673534207,4842.0
55.690245476,4867.0
55.706956745,4730.0
55.723668014,4908.0
55.740379283,4806.0
55.757090552,4893.0
55.773801821,4755.0
55.790513090,4620.0
55.807224359,4936.0
55.823935628,4892.0
55.840646897,4814.0
55.857358166,4851.0
55.874069435,4927.0
55.890780704,4849.0
55.907491973,4830.0
55.924203242,4942.0
55.940914511,4792.0
55.957625780,4899.0
55.974337049,4903.0
55.991048318,4837.0
56.007759587,4912.0
56.024470856,4735.0
56.041182125,4924.0
56.057893393,4721.0
56.074604662,4887.0
56.091315931,4830.0
56.108027200,4854.0
56.124738469,4820.0
56.141449738,4858.0
56.158161007,4882.0
56.174872276,5019.0
56.191583545,4914.0
56.208294814,4850.0
56.225006083,4759.0
56.241717352,4780.0
56.258428621,4839.0
56.275139890,4852.0
56.291851159,4754.0
56.308562428,4826.0
56.325273697,4734.0
56.341984966,4813.0
56.358696235,4680.0
56.375407504,4743.0
56.392118773,4831.0
56.408830042,4740.0
56.425541311,4842.0
56.442252580,4919.0
56.458963849,4811.0
56.475675118,4904.0
56.492386387,4760.0
56.509097656,4667.0
56.525808925,4816.0
56.542520194,4962.0
56.559231463,4775.0
56.575942732,4763.0
56.592654001,4759.0
56.609365270,4841.0
56.626076539,4849.0
56.642787808,4841.0
56.659499077,4751.0
56.676210346,4883.0
56.692921615,4768.0
56.709632884,4903.0
56.726344153,4903.0
56.743055422,4762.0
56.759766691,4836.0
56.776477960,4741.0
56.793189229,4920.0
56.809900498,4929.0
56.826611767,4791.0
56.843323036,4764.0
56.860034304,4877.0
56.876745573,4671.0
56.893456842,4786.0
56.910168111,4797.0
56.926879380,4808.0
56.943590649,4838.0
56.960301918,4798.0
56.977013187,4897.0
56.993724456,4834.0
57.010435725,4878.0
57.027146994,4989.0
57.043858263,4906.0
57.060569532,4857.0
57.077280801,4745.0
57.093992070,4833.0
57.110703339,4786.0
57.127414608,4880.0
57.144125877,4761.0
57.160837146,4809.0
57.177548415,4829.0
57.194259684,4768.0
57.210970953,4866.0
57.227682222,4847.0
57.244393491,4813.0
57.261104760,4969.0
57.277816029,4791.0
57.294527298,4948.0
57.311238567,4838.0
57.327949836,4820.0
57.344661105,4872.0
57.361372374,4917.0
57.378083643,4963.0
57.394794912,4800.0
57.411506181,4789.0
57.428217450,4789.0
57.444928719,4700.0
57.461639988,4631.0
57.478351257,4825.0
57.495062526,4794.0
57.511773795,4852.0
57.528485064,4689.0
57.545196333,4922.0
57.561907602,4897.0
57.578618871,4816.0
57.595330140,4641.0
57.612041409,4875.0
57.628752678,4740.0
57.645463947,4793.0
57.662175216,4958.0
57.678886484,4877.0
57.695597753,4813.0
57.712309022,4873.0
57.729020291,4917.0
57.745731560,4836.0
57.762442829,4870.0
57.779154098,4878.0
57.795865367,4759.0
57.812576636,4899.0
57.829287905,4820.0
57.845999174,4794.0
57.862710443,4997.0
57.879421712,4779.0
57.896132981,4794.0
57.912844250,4850.0
57.929555519,4784.0
57.946266788,4913.0
57.962978057,4813.0
57.979689326,4826.0
57.996400595,4780.0
58.013111864,4902.0
58.029823133,4907.0
58.046534402,4719.0
58.063245671,4824.0
58.079956940,4921.0
58.096668209,4836.0
58.113379478,4879.0
58.130090747,4939.0
58.146802016,4722.0
58.163513285,4781.0
58.180224554,4828.0
58.196935823,4913.0
58.213647092,4766.0
58.230358361,4887.0
58.247069630,4853.0
58.263780899,4889.0
58.280492168,4687.0
58.297203437,4867.0
58.313914706,4801.0
58.330625975,4711.0
58.347337244,4859.0
58.364048513,4894.0
58.380759782,4800.0
58.397471051,4751.0
58.414182320,4804.0
58.430893589,4757.0
58.447604858,4824.0
58.464316127,4823.0
58.481027395,4825.0
58.497738664,4861.0
58.514449933,4866.0
58.531161202,4836.0
58.547872471,4788.0
58.564583740,4817.0
58.581295009,4892.0
58.598006278,4729.0
58.614717547,4902.0
58.631428816,4946.0
58.648140085,4670.0
58.664851354,4960.0
58.681562623,4971.0
58.698273892,4801.0
58.714985161,4877.0
58.731696430,4927.0
58.748407699,4785.0
58.765118968,4916.0
58.781830237,4923.0
58.798541506,4832.0
58.815252775,4824.0
58.831964044,4807.0
58.848675313,4970.0
58.865386582,4901.0
58.882097851,4810.0
58.898809120,4857.0
58.915520389,4864.0
58.932231658,4936.0
58.948942927,4864.0
58.965654196,4908.0
58.982365465,4792.0
58.999076734,4886.0
59.015788003,4916.0
59.032499272,4871.0
59.049210541,4879.0
59.065921810,4724.0
59.082633079,4787.0
59.099344348,4847.0
59.116055617,4737.0
59.132766886,4894.0
59.149478155,4808.0
59.166189424,4926.0
59.182900693,4792.0
59.199611962,4959.0
59.216323231,4921.0
59.233034500,4907.0
59.249745769,4889.0
59.266457038,4819.0
59.283168306,4842.0
59.299879575,4964.0
59.316590844,4932.0
59.333302113,4867.0
59.350013382,4758.0
59.366724651,4878.0
59.383435920,4950.0
59.400147189,4790.0
59.416858458,4925.0
59.433569727,4908.0
59.450280996,4837.0
59.466992265,4902.0
59.483703534,4926.0
59.500414803,4812.0
59.517126072,4901.0
59.533837341,4860.0
59.550548610,4844.0
59.567259879,4875.0
59.583971148,4798.0
59.600682417,4909.0
59.617393686,4942.0
59.634104955,4880.0
59.650816224,4979.0
59.667527493,4888.0
59.684238762,4939.0
59.700950031,4801.0
59.717661300,4856.0
59.734372569,4818.0
59.751083838,4855.0
59.767795107,4893.0
59.784506376,4835.0
59.801217645,4912.0
59.817928914,4942.0
59.834640183,5000.0
59.851351452,4814.0
59.868062721,4739.0
59.884773990,4811.0
59.901485259,4826.0
59.918196528,5070.0
59.934907797,4878.0
59.951619066,4848.0
59.968330335,5025.0
59.985041604,4983.0
60.001752873,5075.0
60.018464142,5031.0
60.035175411,4902.0
60.051886680,4930.0
60.068597949,4787.0
60.085309217,4840.0
60.102020486,4847.0
60.118731755,4882.0
60.135443024,4917.0
60.152154293,4792.0
60.168865562,4996.0
60.185576831,4837.0
60.202288100,4864.0
60.218999369,4919.0
60.235710638,4960.0
60.252421907,5038.0
60.269133176,4927.0
60.285844445,4944.0
60.302555714,4975.0
60.319266983,5006.0
60.335978252,4863.0
60.352689521,4951.0
60.369400790,4951.0
60.386112059,4947.0
60.402823328,4982.0
60.419534597,4865.0
60.436245866,4996.0
60.452957135,4891.0
60.469668404,4884.0
60.486379673,5018.0
60.503090942,5037.0
60.519802211,5030.0
60.536513480,4868.0
60.553224749,5020.0
60.569936018,5090.0
60.586647287,4942.0
60.603358556,4976.0
60.620069825,4943.0
60.636781094,5076.0
60.653492363,5209.0
60.670203632,5093.0
60.686914901,5136.0
60.703626170,5181.0
60.720337439,5131.0
60.737048708,5276.0
60.753759977,5346.0
60.770471246,5285.0
60.787182515,5342.0
60.803893784,5395.0
60.820605053,5462.0
60.837316322,5542.0
60.854027591,5578.0
60.870738860,5613.0
60.887450129,5725.0
60.904161397,5679.0
60.920872666,5892.0
60.937583935,6115.0
60.954295204,6147.0
60.971006473,6407.0
60.987717742,6503.0
61.004429011,6666.0
61.021140280,6937.0
61.037851549,7203.0
61.054562818,7224.0
61.071274087,7599.0
61.087985356,7781.0
61.104696625,7884.0
61.121407894,8381.0
61.138119163,8653.0
61.154830432,8488.0
61.171541701,8884.0
61.188252970,9132.0
61.204964239,9442.0
61.221675508,9579.0
61.238386777,9844.0
61.255098046,10003.0
61.271809315,10150.0
61.288520584,10335.0
61.305231853,10064.0
61.321943122,10129.0
61.338654391,10104.0
61.355365660,10265.0
61.372076929,10059.0
61.388788198,9890.0
61.405499467,9874.0
61.422210736,9489.0
61.438922005,9509.0
61.455633274,9061.0
61.472344543,8991.0
61.489055812,8588.0
61.505767081,8340.0
61.522478350,8110.0
61.539189619,7903.0
61.555900888,7643.0
61.572612157,7255.0
61.589323426,7007.0
61.606034695,6845.0
61.622745964,6668.0
61.639457233,6576.0
61.656168502,6362.0
61.672879771,6132.0
61.689591040,6075.0
61.706302308,5803.0
61.723013577,5692.0
61.739724846,5666.0
61.756436115,5480.0
61.773147384,5372.0
61.789858653,5308.0
61.806569922,5112.0
61.823281191,5294.0
61.839992460,5115.0
61.856703729,5089.0
61.873414998,5099.0
61.890126267,5016.0
61.906837536,5329.0
61.923548805,5131.0
61.940260074,5063.0
61.956971343,5217.0
61.973682612,4990.0
61.990393881,5061.0
62.007105150,4990.0
62.023816419,5008.0
62.040527688,5013.0
62.057238957,4885.0
62.073950226,4925.0
62.090661495,4984.0
62.107372764,5000.0
62.124084033,5064.0
62.140795302,5036.0
62.157506571,4974.0
62.174217840,4876.0
62.190929109,4908.0
62.207640378,4980.0
62.224351647,4902.0
62.241062916,4895.0
62.257774185,5013.0
62.274485454,5006.0
62.291196723,4879.0
62.307907992,4908.0
62.324619261,4967.0
62.341330530,4898.0
62.358041799,4902.0
62.374753068,4882.0
62.391464337,4820.0
62.408175606,4984.0
62.424886875,4912.0
62.441598144,5031.0
62.458309413,4849.0
62.475020682,4749.0
62.491731951,4737.0
62.508443219,4943.0
62.525154488,4911.0
62.541865757,4850.0
62.558577026,4826.0
62.575288295,4857.0
62.591999564,4781.0
62.608710833,4900.0
62.625422102,4755.0
62.642133371,4760.0
62.658844640,4808.0
62.675555909,4902.0
62.692267178,4903.0
62.708978447,4947.0
62.725689716,4886.0
62.742400985,4862.0
62.759112254,4790.0
62.775823523,4717.0
62.792534792,4749.0
62.809246061,4823.0
62.825957330,4916.0
62.842668599,4852.0
62.859379868,4756.0
62.876091137,4907.0
62.892802406,4847.0
62.909513675,4778.0
62.926224944,4900.0
62.942936213,4853.0
62.959647482,4813.0
62.976358751,4891.0
62.993070020,5033.0
63.009781289,4908.0
63.026492558,4941.0
63.043203827,4854.0
63.059915096,4731.0
63.076626365,4744.0
63.093337634,4807.0
63.110048903,4836.0
63.126760172,4783.0
63.143471441,4797.0
63.160182710,5014.0
63.176893979,4818.0
63.193605248,4859.0
63.210316517,4751.0
63.227027786,4905.0
63.243739055,4977.0
63.260450324,4817.0
63.277161593,4775.0
63.293872862,4858.0
63.310584130,4898.0
63.327295399,4733.0
63.344006668,4843.0
63.360717937,4897.0
63.377429206,4893.0
63.394140475,4788.0
63.410851744,4782.0
63.427563013,4705.0
63.444274282,4733.0
63.460985551,4928.0
63.477696820,4771.0
63.494408089,4867.0
63.511119358,4876.0
63.527830627,4800.0
63.544541896,4675.0
63.561253165,4877.0
63.577964434,4827.0
63.594675703,4775.0
63.611386972,4757.0
63.628098241,4867.0
63.644809510,4847.0
63.661520779,4801.0
63.678232048,4759.0
63.694943317,4794.0
63.711654586,4840.0
63.728365855,4764.0
63.745077124,4784.0
63.761788393,4789.0
63.778499662,4845.0
63.795210931,4838.0
63.811922200,4766.0
63.828633469,4693.0
63.845344738,4804.0
63.862056007,4720.0
63.878767276,4850.0
63.895478545,4681.0
63.912189814,4804.0
63.928901083,4813.0
63.945612352,4554.0
63.962323621,4681.0
63.979034890,4762.0
63.995746159,4852.0
64.012457428,4843.0
64.029168697,4821.0
64.045879966,4848.0
64.062591235,4730.0
64.079302504,4768.0
64.096013773,4937.0
64.112725041,4843.0
64.129436310,4771.0
64.146147579,4875.0
64.162858848,4894.0
64.179570117,4826.0
64.196281386,4821.0
64.212992655,4800.0
64.229703924,4827.0
64.246415193,4729.0
64.263126462,4921.0
64.279837731,4682.0
64.296549000,4670.0
64.313260269,4822.0
64.329971538,4722.0
64.346682807,4792.0
64.363394076,4763.0
64.380105345,4853.0
64.396816614,4751.0
64.413527883,4746.0
64.430239152,4897.0
64.446950421,4776.0
64.463661690,4639.0
64.480372959,4866.0
64.497084228,4714.0
64.513795497,4835.0
64.530506766,4802.0
64.547218035,4909.0
64.563929304,4725.0
64.580640573,4826.0
64.597351842,4719.0
64.614063111,4708.0
64.630774380,4794.0
64.647485649,4794.0
64.664196918,4803.0
64.680908187,4866.0
64.697619456,4817.0
64.714330725,4834.0
64.731041994,4765.0
64.747753263,4876.0
64.764464532,4661.0
64.781175801,4785.0
64.797887070,4807.0
64.814598339,4791.0
64.831309608,4709.0
64.848020877,4859.0
64.864732146,4726.0
64.881443415,4723.0
64.898154684,4778.0
64.914865953,4744.0
64.931577221,4879.0
64.948288490,4810.0
64.964999759,4834.0
64.981711028,4702.0
64.998422297,4736.0
65.015133566,4753.0
65.031844835,4909.0
65.048556104,4769.0
65.065267373,4891.0
65.081978642,4917.0
65.098689911,4816.0
65.115401180,4761.0
65.132112449,4724.0
65.148823718,4824.0
65.165534987,4827.0
65.182246256,4810.0
65.198957525,4623.0
65.215668794,4870.0
65.232380063,4836.0
65.249091332,4867.0
65.265802601,4816.0
65.282513870,4852.0
65.299225139,4703.0
65.315936408,4817.0
65.332647677,4864.0
65.349358946,4768.0
65.366070215,4811.0
65.382781484,4904.0
65.399492753,4828.0
65.416204022,4773.0
65.432915291,4886.0
65.449626560,4883.0
65.466337829,4864.0
65.483049098,4669.0
65.499760367,4864.0
65.516471636,4840.0
65.533182905,4965.0
65.549894174,4889.0
65.566605443,4845.0
65.583316712,4808.0
65.600027981,4871.0
65.616739250,4896.0
65.633450519,4785.0
65.650161788,4716.0
65.666873057,4888.0
65.683584326,4867.0
65.700295595,4729.0
65.717006864,4928.0
65.733718132,4891.0
65.750429401,4866.0
65.767140670,4835.0
65.783851939,4883.0
65.800563208,4880.0
65.817274477,4858.0
65.833985746,4891.0
65.850697015,4840.0
65.867408284,4844.0
65.884119553,4948.0
65.900830822,4899.0
65.917542091,4917.0
65.934253360,5011.0
65.950964629,4916.0
65.967675898,5085.0
65.984387167,5035.0
66.001098436,4937.0
66.017809705,4759.0
66.034520974,4988.0
66.051232243,4869.0
66.067943512,5026.0
66.084654781,4969.0
66.101366050,5069.0
66.118077319,4909.0
66.134788588,4909.0
66.151499857,4912.0
66.168211126,4856.0
66.184922395,4818.0
66.201633664,4989.0
66.218344933,4942.0
66.235056202,4910.0
66.251767471,4792.0
66.268478740,4798.0
66.285190009,4975.0
66.301901278,4906.0
66.318612547,4930.0
66.335323816,4973.0
66.352035085,4754.0
66.368746354,4971.0
66.385457623,4790.0
66.402168892,4907.0
66.418880161,4602.0
66.435591430,4813.0
66.452302699,4790.0
66.469013968,4775.0
66.485725237,4737.0
66.502436506,4823.0
66.519147775,4873.0
66.535859043,4896.0
66.552570312,4782.0
66.569281581,4690.0
66.585992850,4727.0
66.602704119,4891.0
66.619415388,4911.0
66.636126657,4690.0
66.652837926,4814.0
66.669549195,4807.0
66.686260464,4844.0
66.702971733,4828.0
66.719683002,4785.0
66.736394271,4746.0
66.753105540,4704.0
66.769816809,4808.0
66.786528078,4835.0
66.803239347,4848.0
66.819950616,4762.0
66.836661885,4827.0
66.853373154,4674.0
66.870084423,4666.0
66.886795692,4736.0
66.903506961,4717.0
66.920218230,4643.0
66.936929499,4754.0
66.953640768,4801.0
66.970352037,4660.0
66.987063306,4739.0
67.003774575,4881.0
67.020485844,4847.0
67.037197113,4679.0
67.053908382,4680.0
67.070619651,4924.0
67.087330920,4798.0
67.104042189,4914.0
67.120753458,4742.0
67.137464727,4765.0
67.154175996,4800.0
67.170887265,4739.0
67.187598534,4701.0
67.204309803,4854.0
67.221021072,4792.0
67.237732341,4803.0
67.254443610,4807.0
67.271154879,4773.0
67.287866148,4737.0
67.304577417,4760.0
67.321288686,4811.0
67.337999954,4771.0
67.354711223,4752.0
67.371422492,4755.0
67.388133761,4749.0
67.404845030,4941.0
67.421556299,4707.0
67.438267568,4812.0
67.454978837,4872.0
67.471690106,4853.0
67.488401375,4803.0
67.505112644,4930.0
67.521823913,4844.0
67.538535182,4740.0
67.555246451,4849.0
67.571957720,4740.0
67.588668989,4775.0
67.605380258,4851.0
67.622091527,4799.0
67.638802796,4885.0
67.655514065,4914.0
67.672225334,5179.0
67.688936603,5139.0
67.705647872,5332.0
67.722359141,5205.0
67.739070410,5055.0
67.755781679,4935.0
67.772492948,5064.0
67.789204217,4921.0
67.805915486,4860.0
67.822626755,4834.0
67.839338024,4942.0
67.856049293,4880.0
67.872760562,4954.0
67.889471831,5042.0
67.906183100,5072.0
67.922894369,4820.0
67.939605638,4939.0
67.956316907,4795.0
67.973028176,4869.0
67.989739445,4873.0
68.006450714,5002.0
68.023161983,4757.0
68.039873252,4859.0
68.056584521,4804.0
68.073295790,4824.0
68.090007059,4819.0
68.106718328,4841.0
68.123429597,4906.0
68.140140866,4870.0
68.156852134,4780.0
68.173563403,4642.0
68.190274672,4743.0
68.206985941,4711.0
68.223697210,4743.0
68.240408479,4737.0
68.257119748,4811.0
68.273831017,4681.0
68.290542286,4670.0
68.307253555,4749.0
68.323964824,4944.0
68.340676093,4915.0
68.357387362,4761.0
68.374098631,4767.0
68.390809900,4761.0
68.407521169,4769.0
68.424232438,4729.0
68.440943707,4661.0
68.457654976,4887.0
68.474366245,4748.0
68.491077514,4684.0
68.507788783,4691.0
68.524500052,4677.0
68.541211321,4682.0
68.557922590,4852.0
68.574633859,4817.0
68.591345128,4856.0
68.608056397,4717.0
68.624767666,4655.0
68.641478935,4728.0
68.658190204,4682.0
68.674901473,4715.0
68.691612742,4736.0
68.708324011,4704.0
68.725035280,4759.0
68.741746549,4608.0
68.758457818,4770.0
68.775169087,4753.0
68.791880356,4730.0
68.808591625,4808.0
68.825302894,4759.0
68.842014163,4706.0
68.858725432,4910.0
68.875436701,4820.0
68.892147970,4809.0
68.908859239,4625.0
68.925570508,4813.0
68.942281777,4657.0
68.958993045,4847.0
68.975704314,4853.0
68.992415583,4728.0
69.009126852,4822.0
69.025838121,4717.0
69.042549390,4774.0
69.059260659,4818.0
69.075971928,4795.0
69.092683197,4925.0
69.109394466,4736.0
69.126105735,4739.0
69.142817004,4734.0
69.159528273,4768.0
69.176239542,4744.0
69.192950811,4869.0
69.209662080,4851.0
69.226373349,4767.0
69.243084618,4796.0
69.259795887,4604.0
69.276507156,4847.0
69.293218425,4797.0
69.309929694,4766.0
69.326640963,4754.0
69.343352232,4749.0
69.360063501,4773.0
69.376774770,4921.0
69.393486039,4763.0
69.410197308,4779.0
69.426908577,4748.0
69.443619846,4780.0
69.460331115,4936.0
69.477042384,4756.0
69.493753653,4792.0
69.510464922,4853.0
69.527176191,4872.0
69.543887460,4745.0
69.560598729,4914.0
69.577309998,4681.0
69.594021267,4653.0
69.610732536,4827.0
69.627443805,4844.0
69.644155074,4902.0
69.660866343,4851.0
69.677577612,4800.0
69.694288881,4882.0
69.711000150,4681.0
69.727711419,4829.0
69.744422688,4811.0
69.761133956,4821.0
69.777845225,4802.0
69.794556494,4775.0
69.811267763,4833.0
69.827979032,4782.0
69.844690301,4733.0
69.861401570,4707.0
69.878112839,4675.0
69.894824108,4823.0
69.911535377,4720.0
69.928246646,4779.0
69.944957915,4820.0
69.961669184,4760.0
69.978380453,4692.0
69.995091722,4630.0
70.011802991,4859.0
70.028514260,4657.0
70.045225529,4771.0
70.061936798,4735.0
70.078648067,4782.0
70.095359336,4742.0
70.112070605,4764.0
70.128781874,4830.0
70.145493143,4799.0
70.162204412,4742.0
70.178915681,4831.0
70.195626950,4818.0
70.212338219,4725.0
70.229049488,4835.0
70.245760757,4740.0
70.262472026,4745.0
70.279183295,4778.0
70.295894564,4785.0
70.312605833,4802.0
70.329317102,4887.0
70.346028371,4857.0
70.362739640,4898.0
70.379450909,4674.0
70.396162178,4726.0
70.412873447,4726.0
70.429584716,4843.0
70.446295985,4818.0
70.463007254,4758.0
70.479718523,4740.0
70.496429792,4731.0
70.513141061,4716.0
70.529852330,4918.0
70.546563599,4837.0
70.563274867,4821.0
70.579986136,4839.0
70.596697405,4971.0
70.613408674,4789.0
70.630119943,4724.0
70.646831212,4805.0
70.663542481,4759.0
70.680253750,4774.0
70.696965019,4813.0
70.713676288,4847.0
70.730387557,4765.0
70.747098826,4724.0
70.763810095,4802.0
70.780521364,4883.0
70.797232633,4697.0
70.813943902,4844.0
70.830655171,4734.0
70.847366440,4880.0
70.864077709,4840.0
70.880788978,4924.0
70.897500247,4939.0
70.914211516,4754.0
70.930922785,4755.0
70.947634054,4906.0
70.964345323,4858.0
70.981056592,4754.0
70.997767861,4841.0
71.014479130,4837.0
71.031190399,4910.0
71.047901668,4815.0
71.064612937,4861.0
71.081324206,4781.0
71.098035475,4763.0
71.114746744,4716.0
71.131458013,4861.0
71.148169282,4791.0
71.164880551,4792.0
71.181591820,4754.0
71.198303089,4778.0
71.215014358,4724.0
71.231725627,4803.0
71.248436896,4879.0
71.265148165,4910.0
71.281859434,4807.0
71.298570703,4884.0
71.315281972,4862.0
71.331993241,4896.0
71.348704510,4745.0
71.365415779,4807.0
71.382127047,4846.0
71.398838316,4851.0
71.415549585,4954.0
71.432260854,4875.0
71.448972123,4957.0
71.465683392,4858.0
71.482394661,4933.0
71.499105930,4928.0
71.515817199,4824.0
71.532528468,4916.0
71.549239737,4812.0
71.565951006,4755.0
71.582662275,4827.0
71.599373544,4865.0
71.616084813,5013.0
71.632796082,4793.0
71.649507351,4745.0
71.666218620,4769.0
71.682929889,4882.0
71.699641158,4843.0
71.716352427,4936.0
71.733063696,4805.0
71.749774965,4874.0
71.766486234,5021.0
71.783197503,4768.0
71.799908772,4862.0
71.816620041,4825.0
71.833331310,4809.0
71.850042579,4819.0
71.866753848,4783.0
71.883465117,4772.0
71.900176386,4765.0
71.916887655,5000.0
71.933598924,4887.0
71.950310193,4809.0
71.967021462,4861.0
71.983732731,5011.0
72.000444000,4965.0
72.017155269,4943.0
72.033866538,4906.0
72.050577807,4947.0
72.067289076,4945.0
72.084000345,4799.0
72.100711614,4866.0
72.117422883,4816.0
72.134134152,4934.0
72.150845421,4833.0
72.167556690,4903.0
72.184267958,4945.0
72.200979227,4854.0
72.217690496,4800.0
72.234401765,4892.0
72.251113034,4859.0
72.267824303,5004.0
72.284535572,4948.0
72.301246841,4847.0
72.317958110,4755.0
72.334669379,4944.0
72.351380648,4873.0
72.368091917,4981.0
72.384803186,5085.0
72.401514455,4953.0
72.418225724,5037.0
72.434936993,5089.0
72.451648262,4905.0
72.468359531,4941.0
72.485070800,4965.0
72.501782069,4991.0
72.518493338,4982.0
72.535204607,4901.0
72.551915876,4979.0
72.568627145,4825.0
72.585338414,4962.0
72.602049683,5000.0
72.618760952,4985.0
72.635472221,5055.0
72.652183490,4954.0
72.668894759,5054.0
72.685606028,5119.0
72.702317297,4946.0
72.719028566,5034.0
72.735739835,5123.0
72.752451104,5171.0
72.769162373,5171.0
72.785873642,5160.0
72.802584911,5173.0
72.819296180,5274.0
72.836007449,5209.0
72.852718718,5272.0
72.869429987,5317.0
72.886141256,5355.0
72.902852525,5429.0
72.919563794,5339.0
72.936275063,5564.0
72.952986332,5534.0
72.969697601,5665.0
72.986408869,5624.0
73.003120138,5839.0
73.019831407,5706.0
73.036542676,5902.0
73.053253945,6060.0
73.069965214,6155.0
73.086676483,6129.0
73.103387752,6348.0
73.120099021,6255.0
73.136810290,6651.0
73.153521559,6742.0
73.170232828,6685.0
73.186944097,7001.0
73.203655366,6989.0
73.220366635,7259.0
73.237077904,7468.0
73.253789173,7612.0
73.270500442,8167.0
73.287211711,8264.0
73.303922980,8661.0
73.320634249,8959.0
73.337345518,9460.0
73.354056787,10240.0
73.370768056,10765.0
73.387479325,11604.0
73.404190594,12804.0
73.420901863,13925.0
73.437613132,15317.0
73.454324401,16543.0
73.471035670,18051.0
73.487746939,18923.0
73.504458208,19081.0
73.521169477,19209.0
73.537880746,18949.0
73.554592015,17940.0
73.571303284,17528.0
73.588014553,16627.0
73.604725822,16161.0
73.621437091,16347.0
73.638148360,15818.0
73.654859629,15041.0
73.671570898,14162.0
73.688282167,13442.0
73.704993436,13087.0
73.721704705,12601.0
73.738415974,12203.0
73.755127243,11917.0
73.771838512,11025.0
73.788549780,10335.0
73.805261049,9594.0
73.821972318,9367.0
73.838683587,9045.0
73.855394856,8452.0
73.872106125,7804.0
73.888817394,6940.0
73.905528663,6453.0
73.922239932,6062.0
73.938951201,5877.0
73.955662470,5608.0
73.972373739,5515.0
73.989085008,5508.0
74.005796277,5415.0
74.022507546,5436.0
74.039218815,5264.0
74.055930084,5370.0
74.072641353,5195.0
74.089352622,5100.0
74.106063891,5143.0
74.122775160,4998.0
74.139486429,5153.0
74.156197698,5257.0
74.172908967,5106.0
74.189620236,5071.0
74.206331505,4991.0
74.223042774,5037.0
74.239754043,5105.0
74.256465312,4939.0
74.273176581,5044.0
74.289887850,5086.0
74.306599119,5010.0
74.323310388,4925.0
74.340021657,4994.0
74.356732926,4855.0
74.373444195,4992.0
74.390155464,4980.0
74.406866733,4926.0
74.423578002,4908.0
74.440289271,4791.0
74.457000540,4962.0
74.473711809,4879.0
74.490423078,4930.0
74.507134347,4948.0
74.523845616,4847.0
74.540556885,4886.0
74.557268154,4872.0
74.573979423,4877.0
74.590690692,5033.0
74.607401960,4899.0
74.624113229,5075.0
74.640824498,4952.0
74.657535767,4983.0
74.674247036,4718.0
74.690958305,4942.0
74.707669574,4991.0
74.724380843,4957.0
74.741092112,4970.0
74.757803381,4835.0
74.774514650,4978.0
74.791225919,4893.0
74.807937188,4906.0
74.824648457,4827.0
74.841359726,4872.0
74.858070995,4957.0
74.874782264,4907.0
74.891493533,4901.0
74.908204802,4991.0
74.924916071,4965.0
74.941627340,4821.0
74.958338609,4881.0
74.975049878,4832.0
74.991761147,4733.0
75.008472416,4883.0
75.025183685,4881.0
75.041894954,4772.0
75.058606223,4874.0
75.075317492,4857.0
75.092028761,4805.0
75.108740030,4765.0
75.125451299,4821.0
75.142162568,4817.0
75.158873837,4848.0
75.175585106,4691.0
75.192296375,4889.0
75.209007644,4771.0
75.225718913,4856.0
75.242430182,4733.0
75.259141451,4818.0
75.275852720,4847.0
75.292563989,4800.0
75.309275258,4891.0
75.325986527,4884.0
75.342697796,4821.0
75.359409065,4735.0
75.376120334,4675.0
75.392831603,4928.0
75.409542871,4862.0
75.426254140,4840.0
75.442965409,4767.0
75.459676678,4706.0
75.476387947,4789.0
75.493099216,4845.0
75.509810485,4769.0
75.526521754,4879.0
75.543233023,4941.0
75.559944292,4772.0
75.576655561,4768.0
75.593366830,4764.0
75.610078099,4855.0
75.626789368,4778.0
75.643500637,4906.0
75.660211906,4741.0
75.676923175,4699.0
75.693634444,4856.0
75.710345713,4794.0
75.727056982,4781.0
75.743768251,4714.0
75.760479520,4733.0
75.777190789,4690.0
75.793902058,4812.0
75.810613327,4702.0
75.827324596,4728.0
75.844035865,4712.0
75.860747134,4637.0
75.877458403,4664.0
75.894169672,4691.0
75.910880941,4752.0
75.927592210,4872.0
75.944303479,4700.0
75.961014748,4876.0
75.977726017,4877.0
75.994437286,4720.0
76.011148555,4738.0
76.027859824,4729.0
76.044571093,4697.0
76.061282362,4722.0
76.077993631,4703.0
76.094704900,4659.0
76.111416169,4742.0
76.128127438,4681.0
76.144838707,4819.0
76.161549976,4916.0
76.178261245,4748.0
76.194972514,4675.0
76.211683782,4762.0
76.228395051,4806.0
76.245106320,4691.0
76.261817589,4757.0
76.278528858,4752.0
76.295240127,4767.0
76.311951396,4780.0
76.328662665,4760.0
76.345373934,4806.0
76.362085203,4812.0
76.378796472,4913.0
76.395507741,4660.0
76.412219010,4611.0
76.428930279,4594.0
76.445641548,4755.0
76.462352817,4871.0
76.479064086,4972.0
76.495775355,4784.0
76.512486624,4832.0
76.529197893,4720.0
76.545909162,4790.0
76.562620431,4708.0
76.579331700,4750.0
76.596042969,4669.0
76.612754238,4717.0
76.629465507,4798.0
76.646176776,4731.0
76.662888045,4731.0
76.679599314,4746.0
76.696310583,4753.0
76.713021852,4831.0
76.729733121,4786.0
76.746444390,4719.0
76.763155659,4825.0
76.779866928,4880.0
76.796578197,4664.0
76.813289466,4752.0
76.830000735,4797.0
76.846712004,4758.0
76.863423273,4894.0
76.880134542,4838.0
76.896845811,4905.0
76.913557080,4807.0
76.930268349,4843.0
76.946979618,4892.0
76.963690887,4734.0
76.980402156,4977.0
76.997113425,4810.0
77.013824693,5045.0
77.030535962,5044.0
77.047247231,4913.0
77.063958500,5119.0
77.080669769,4974.0
77.097381038,4909.0
77.114092307,5078.0
77.130803576,5087.0
77.147514845,5086.0
77.164226114,5053.0
77.180937383,5033.0
77.197648652,5243.0
77.214359921,5035.0
77.231071190,5161.0
77.247782459,5206.0
77.264493728,5286.0
77.281204997,5167.0
77.297916266,5074.0
77.314627535,5233.0
77.331338804,5166.0
77.348050073,5326.0
77.364761342,5202.0
77.381472611,5031.0
77.398183880,5347.0
77.414895149,5105.0
77.431606418,5052.0
77.448317687,5121.0
77.465028956,5060.0
77.481740225,5135.0
77.498451494,5051.0
77.515162763,5160.0
77.531874032,5055.0
77.548585301,4913.0
77.565296570,4926.0
77.582007839,4962.0
77.598719108,4855.0
77.615430377,4854.0
77.632141646,4978.0
77.648852915,4792.0
77.665564184,4987.0
77.682275453,4915.0
77.698986722,4858.0
77.715697991,4940.0
77.732409260,4809.0
77.749120529,4774.0
77.765831798,4790.0
77.782543067,4670.0
77.799254336,4771.0
77.815965605,4743.0
77.832676873,4812.0
77.849388142,4744.0
77.866099411,4785.0
77.882810680,4645.0
77.899521949,4668.0
77.916233218,4689.0
77.932944487,4803.0
77.949655756,4678.0
77.966367025,4737.0
77.983078294,4796.0
77.999789563,4679.0
78.016500832,4754.0
78.033212101,4707.0
78.049923370,4683.0
78.066634639,4656.0
78.083345908,4707.0
78.100057177,4631.0
78.116768446,4669.0
78.133479715,4629.0
78.150190984,4837.0
78.166902253,4838.0
78.183613522,4747.0
78.200324791,4592.0
78.217036060,4695.0
78.233747329,4735.0
78.250458598,4697.0
78.267169867,4786.0
78.283881136,4711.0
78.300592405,4642.0
78.317303674,4660.0
78.334014943,4613.0
78.350726212,4696.0
78.367437481,4789.0
78.384148750,4730.0
78.400860019,4690.0
78.417571288,4798.0
78.434282557,4716.0
78.450993826,4683.0
78.467705095,4669.0
78.484416364,4625.0
78.501127633,4932.0
78.517838902,4841.0
78.534550171,4609.0
78.551261440,4676.0
78.567972709,4695.0
78.584683978,4699.0
78.601395247,4682.0
78.618106516,4786.0
78.634817784,4671.0
78.651529053,4713.0
78.668240322,4665.0
78.684951591,4649.0
78.701662860,4740.0
78.718374129,4921.0
78.735085398,4725.0
78.751796667,4724.0
78.768507936,4681.0
78.785219205,4760.0
78.801930474,4727.0
78.818641743,4663.0
78.835353012,4763.0
78.852064281,4679.0
78.868775550,4527.0
78.885486819,4621.0
78.902198088,4669.0
78.918909357,4654.0
78.935620626,4577.0
78.952331895,4636.0
78.969043164,4555.0
78.985754433,4747.0
79.002465702,4647.0
79.019176971,4662.0
79.035888240,4581.0
79.052599509,4752.0
79.069310778,4653.0
79.086022047,4686.0
79.102733316,4554.0
79.119444585,4649.0
79.136155854,4587.0
79.152867123,4716.0
79.169578392,4671.0
79.186289661,4706.0
79.203000930,4679.0
79.219712199,4720.0
79.236423468,4702.0
79.253134737,4774.0
79.269846006,4740.0
79.286557275,4729.0
79.303268544,4577.0
79.319979813,4748.0
79.336691082,4573.0
79.353402351,4731.0
79.370113620,4514.0
79.386824889,4747.0
79.403536158,4526.0
79.420247427,4618.0
79.436958695,4722.0
79.453669964,4729.0
79.470381233,4616.0
79.487092502,4679.0
79.503803771,4802.0
79.520515040,4722.0
79.537226309,4660.0
79.553937578,4745.0
79.570648847,4797.0
79.587360116,4766.0
79.604071385,4785.0
79.620782654,4625.0
79.637493923,4587.0
79.654205192,4628.0
79.670916461,4585.0
79.687627730,4649.0
79.704338999,4736.0
79.721050268,4508.0
79.737761537,4590.0
79.754472806,4585.0
79.771184075,4542.0
79.787895344,4724.0
79.804606613,4587.0
79.821317882,4643.0
79.838029151,4692.0
79.854740420,4751.0
79.871451689,4630.0
79.888162958,4630.0
79.904874227,4604.0
79.921585496,4743.0
79.938296765,4732.0
79.955008034,4683.0
79.971719303,4645.0
79.988430572,4634.0
80.005141841,4692.0
80.021853110,4648.0
80.038564379,4684.0
80.055275648,4674.0
80.071986917,4708.0
80.088698186,4643.0
80.105409455,4685.0
80.122120724,4683.0
80.138831993,4685.0
80.155543262,4715.0
80.172254531,4658.0
80.188965800,4613.0
80.205677069,4524.0
80.222388338,4590.0
80.239099606,4679.0
80.255810875,4607.0
80.272522144,4754.0
80.289233413,4648.0
80.305944682,4599.0
80.322655951,4706.0
80.339367220,4770.0
80.356078489,4613.0
80.372789758,4631.0
80.389501027,4590.0
80.406212296,4660.0
80.422923565,4553.0
80.439634834,4630.0
80.456346103,4629.0
80.473057372,4638.0
80.489768641,4774.0
80.506479910,4716.0
80.523191179,4540.0
80.539902448,4613.0
80.556613717,4610.0
80.573324986,4693.0
80.590036255,4521.0
80.606747524,4667.0
80.623458793,4643.0
80.640170062,4509.0
80.656881331,4740.0
80.673592600,4603.0
80.690303869,4759.0
80.707015138,4635.0
80.723726407,4559.0
80.740437676,4642.0
80.757148945,4578.0
80.773860214,4644.0
80.790571483,4584.0
80.807282752,4688.0
80.823994021,4777.0
80.840705290,4660.0
80.857416559,4594.0
80.874127828,4577.0
80.890839097,4581.0
80.907550366,4673.0
80.924261635,4686.0
80.940972904,4604.0
80.957684173,4666.0
80.974395442,4664.0
80.991106711,4635.0
81.007817980,4689.0
81.024529249,4840.0
81.041240518,4686.0
81.057951786,4619.0
81.074663055,4430.0
81.091374324,4600.0
81.108085593,4635.0
81.124796862,4587.0
81.141508131,4614.0
81.158219400,4659.0
81.174930669,4696.0
81.191641938,4616.0
81.208353207,4693.0
81.225064476,4524.0
81.241775745,4674.0
81.258487014,4679.0
81.275198283,4592.0
81.291909552,4587.0
81.308620821,4713.0
81.325332090,4758.0
81.342043359,4540.0
81.358754628,4605.0
81.375465897,4643.0
81.392177166,4667.0
81.408888435,4730.0
81.425599704,4646.0
81.442310973,4608.0
81.459022242,4669.0
81.475733511,4559.0
81.492444780,4757.0
81.509156049,4671.0
81.525867318,4710.0
81.542578587,4737.0
81.559289856,4667.0
81.576001125,4670.0
81.592712394,4762.0
81.609423663,4862.0
81.626134932,4903.0
81.642846201,4708.0
81.659557470,4835.0
81.676268739,4765.0
81.692980008,4595.0
81.709691277,4616.0
81.726402546,4690.0
81.743113815,4632.0
81.759825084,4675.0
81.776536353,4607.0
81.793247622,4602.0
81.809958891,4640.0
81.826670160,4715.0
81.843381429,4710.0
81.860092697,4591.0
81.876803966,4690.0
81.893515235,4727.0
81.910226504,4669.0
81.926937773,4609.0
81.943649042,4585.0
81.960360311,4585.0
81.977071580,4734.0
81.993782849,4716.0
82.010494118,4767.0
82.027205387,4714.0
82.043916656,4636.0
82.060627925,4602.0
82.077339194,4671.0
82.094050463,4726.0
82.110761732,4639.0
82.127473001,4671.0
82.144184270,4703.0
82.160895539,4715.0
82.177606808,4631.0
82.194318077,4685.0
82.211029346,4663.0
82.227740615,4649.0
82.244451884,4571.0
82.261163153,4655.0
82.277874422,4635.0
82.294585691,4649.0
82.311296960,4647.0
82.328008229,4566.0
82.344719498,4633.0
82.361430767,4758.0
82.378142036,4675.0
82.394853305,4559.0
82.411564574,4604.0
82.428275843,4697.0
82.444987112,4674.0
82.461698381,4619.0
82.478409650,4639.0
82.495120919,4630.0
82.511832188,4639.0
82.528543457,4689.0
82.545254726,4677.0
82.561965995,4672.0
82.578677264,4664.0
82.595388533,4622.0
82.612099802,4598.0
82.628811071,4694.0
82.645522340,4585.0
82.662233608,4641.0
82.678944877,4676.0
82.695656146,4585.0
82.712367415,4467.0
82.729078684,4426.0
82.745789953,4627.0
82.762501222,4590.0
82.779212491,4655.0
82.795923760,4614.0
82.812635029,4710.0
82.829346298,4627.0
82.846057567,4631.0
82.862768836,4665.0
82.879480105,4595.0
82.896191374,4745.0
82.912902643,4545.0
82.929613912,4708.0
82.946325181,4600.0
82.963036450,4591.0
82.979747719,4684.0
82.996458988,4715.0
83.013170257,4652.0
83.029881526,4614.0
83.046592795,4497.0
83.063304064,4532.0
83.080015333,4687.0
83.096726602,4589.0
83.113437871,4558.0
83.130149140,4586.0
83.146860409,4574.0
83.163571678,4608.0
83.180282947,4642.0
83.196994216,4695.0
83.213705485,4617.0
83.230416754,4572.0
83.247128023,4698.0
83.263839292,4538.0
83.280550561,4804.0
83.297261830,4702.0
83.313973099,4623.0
83.330684368,4680.0
83.347395637,4662.0
83.364106906,4632.0
83.380818175,4606.0
83.397529444,4533.0
83.414240713,4664.0
83.430951982,4552.0
83.447663251,4596.0
83.464374519,4545.0
83.481085788,4671.0
83.497797057,4651.0
83.514508326,4605.0
83.531219595,4637.0
83.547930864,4711.0
83.564642133,4628.0
83.581353402,4557.0
83.598064671,4642.0
83.614775940,4512.0
83.631487209,4568.0
83.648198478,4634.0
83.664909747,4491.0
83.681621016,4490.0
83.698332285,4643.0
83.715043554,4493.0
83.731754823,4671.0
83.748466092,4615.0
83.765177361,4531.0
83.781888630,4524.0
83.798599899,4540.0
83.815311168,4673.0
83.832022437,4656.0
83.848733706,4591.0
83.865444975,4594.0
83.882156244,4550.0
83.898867513,4571.0
83.915578782,4500.0
83.932290051,4628.0
83.949001320,4526.0
83.965712589,4590.0
83.982423858,4526.0
83.999135127,4483.0
84.015846396,4625.0
84.032557665,4606.0
84.049268934,4588.0
84.065980203,4530.0
84.082691472,4631.0
84.099402741,4625.0
84.116114010,4705.0
84.132825279,4639.0
84.149536548,4541.0
84.166247817,4430.0
84.182959086,4467.0
84.199670355,4728.0
84.216381624,4572.0
84.233092893,4631.0
84.249804162,4561.0
84.266515431,4594.0
84.283226699,4580.0
84.299937968,4504.0
84.316649237,4474.0
84.333360506,4695.0
84.350071775,4533.0
84.366783044,4568.0
84.383494313,4562.0
84.400205582,4559.0
84.416916851,4515.0
84.433628120,4569.0
84.450339389,4631.0
84.467050658,4734.0
84.483761927,4571.0
84.500473196,4531.0
84.517184465,4638.0
84.533895734,4682.0
84.550607003,4693.0
84.567318272,4680.0
84.584029541,4587.0
84.600740810,4586.0
84.617452079,4575.0
84.634163348,4620.0
84.650874617,4609.0
84.667585886,4575.0
84.684297155,4630.0
84.701008424,4486.0
84.717719693,4627.0
84.734430962,4588.0
84.751142231,4639.0
84.767853500,4671.0
84.784564769,4695.0
84.801276038,4632.0
84.817987307,4617.0
84.834698576,4633.0
84.851409845,4585.0
84.868121114,4537.0
84.884832383,4585.0
84.901543652,4590.0
84.918254921,4631.0
84.934966190,4561.0
84.951677459,4659.0
84.968388728,4594.0
84.985099997,4454.0
85.001811266,4398.0
85.018522535,4605.0
85.035233804,4545.0
85.051945073,4541.0
85.068656342,4672.0
85.085367610,4602.0
85.102078879,4491.0
85.118790148,4575.0
85.135501417,4497.0
85.152212686,4674.0
85.168923955,4606.0
85.185635224,4552.0
85.202346493,4597.0
85.219057762,4506.0
85.235769031,4585.0
85.252480300,4627.0
85.269191569,4542.0
85.285902838,4568.0
85.302614107,4583.0
85.319325376,4614.0
85.336036645,4517.0
85.352747914,4691.0
85.369459183,4606.0
85.386170452,4497.0
85.402881721,4556.0
85.419592990,4737.0
85.436304259,4500.0
85.453015528,4719.0
85.469726797,4629.0
85.486438066,4620.0
85.503149335,4534.0
85.519860604,4585.0
85.536571873,4602.0
85.553283142,4699.0
85.569994411,4538.0
85.586705680,4593.0
85.603416949,4510.0
85.620128218,4681.0
85.636839487,4527.0
85.653550756,4631.0
85.670262025,4456.0
85.686973294,4572.0
85.703684563,4636.0
85.720395832,4609.0
85.737107101,4644.0
85.753818370,4577.0
85.770529639,4550.0
85.787240908,4675.0
85.803952177,4609.0
85.820663446,4485.0
85.837374715,4476.0
85.854085984,4689.0
85.870797253,4617.0
85.887508521,4559.0
85.904219790,4655.0
85.920931059,4611.0
85.937642328,4583.0
85.954353597,4569.0
85.971064866,4613.0
85.987776135,4651.0
86.004487404,4652.0
86.021198673,4655.0
86.037909942,4704.0
86.054621211,4628.0
86.071332480,4553.0
86.088043749,4541.0
86.104755018,4563.0
86.121466287,4695.0
86.138177556,4598.0
86.154888825,4526.0
86.171600094,4561.0
86.188311363,4611.0
86.205022632,4584.0
86.221733901,4585.0
86.238445170,4660.0
86.255156439,4629.0
86.271867708,4616.0
86.288578977,4663.0
86.305290246,4650.0
86.322001515,4512.0
86.338712784,4543.0
86.355424053,4570.0
86.372135322,4505.0
86.388846591,4650.0
86.405557860,4490.0
86.422269129,4634.0
86.438980398,4558.0
86.455691667,4624.0
86.472402936,4629.0
86.489114205,4569.0
86.505825474,4558.0
86.522536743,4535.0
86.539248012,4662.0
86.555959281,4547.0
86.572670550,4676.0
86.589381819,4611.0
86.606093088,4559.0
86.622804357,4595.0
86.639515626,4562.0
86.656226895,4542.0
86.672938164,4617.0
86.689649432,4686.0
86.706360701,4606.0
86.723071970,4703.0
86.739783239,4553.0
86.756494508,4654.0
86.773205777,4621.0
86.789917046,4501.0
86.806628315,4490.0
86.823339584,4666.0
86.840050853,4593.0
86.856762122,4529.0
86.873473391,4588.0
86.890184660,4546.0
86.906895929,4552.0
86.923607198,4683.0
86.940318467,4625.0
86.957029736,4652.0
86.973741005,4465.0
86.990452274,4526.0
87.007163543,4573.0
87.023874812,4619.0
87.040586081,4737.0
87.057297350,4499.0
87.074008619,4688.0
87.090719888,4661.0
87.107431157,4598.0
87.124142426,4679.0
87.140853695,4420.0
87.157564964,4740.0
87.174276233,4543.0
87.190987502,4636.0
87.207698771,4666.0
87.224410040,4652.0
87.241121309,4623.0
87.257832578,4640.0
87.274543847,4591.0
87.291255116,4560.0
87.307966385,4724.0
87.324677654,4567.0
87.341388923,4549.0
87.358100192,4639.0
87.374811461,4593.0
87.391522730,4550.0
87.408233999,4616.0
87.424945268,4573.0
87.441656537,4679.0
87.458367806,4430.0
87.475079075,4698.0
87.491790344,4638.0
87.508501612,4681.0
87.525212881,4408.0
87.541924150,4724.0
87.558635419,4659.0
87.575346688,4464.0
87.592057957,4594.0
87.608769226,4588.0
87.625480495,4558.0
87.642191764,4532.0
87.658903033,4533.0
87.675614302,4516.0
87.692325571,4467.0
87.709036840,4555.0
87.725748109,4564.0
87.742459378,4523.0
87.759170647,4593.0
87.775881916,4476.0
87.792593185,4659.0
87.809304454,4537.0
87.826015723,4694.0
87.842726992,4549.0
87.859438261,4491.0
87.876149530,4647.0
87.892860799,4608.0
87.909572068,4585.0
87.926283337,4663.0
87.942994606,4493.0
87.959705875,4715.0
87.976417144,4555.0
87.993128413,4574.0
88.009839682,4542.0
88.026550951,4477.0
88.043262220,4587.0
88.059973489,4522.0
88.076684758,4614.0
88.093396027,4497.0
88.110107296,4592.0
88.126818565,4443.0
88.143529834,4473.0
88.160241103,4524.0
88.176952372,4582.0
88.193663641,4697.0
88.210374910,4563.0
88.227086179,4485.0
88.243797448,4672.0
88.260508717,4562.0
88.277219986,4609.0
88.293931255,4546.0
88.310642523,4539.0
88.327353792,4650.0
88.344065061,4588.0
88.360776330,4635.0
88.377487599,4529.0
88.394198868,4634.0
88.410910137,4552.0
88.427621406,4513.0
88.444332675,4540.0
88.461043944,4579.0
88.477755213,4528.0
88.494466482,4610.0
88.511177751,4707.0
88.527889020,4564.0
88.544600289,4607.0
88.561311558,4684.0
88.578022827,4675.0
88.594734096,4580.0
88.611445365,4721.0
88.628156634,4547.0
88.644867903,4668.0
88.661579172,4779.0
88.678290441,4602.0
88.695001710,4776.0
88.711712979,4761.0
88.728424248,4588.0
88.745135517,4679.0
88.761846786,4577.0
88.778558055,4592.0
88.795269324,4704.0
88.811980593,4723.0
88.828691862,4684.0
88.845403131,4907.0
88.862114400,4951.0
88.878825669,4989.0
88.895536938,5095.0
88.912248207,5248.0
88.928959476,5454.0
88.945670745,5537.0
88.962382014,5927.0
88.979093283,5943.0
88.995804552,6417.0
89.012515821,6486.0
89.029227090,6739.0
89.045938359,7120.0
89.062649628,7310.0
89.079360897,7356.0
89.096072166,7448.0
89.112783434,7281.0
89.129494703,7095.0
89.146205972,6784.0
89.162917241,6646.0
89.179628510,6473.0
89.196339779,6453.0
89.213051048,6303.0
89.229762317,6215.0
89.246473586,6125.0
89.263184855,5985.0
89.279896124,5973.0
89.296607393,5974.0
89.313318662,5829.0
89.330029931,6011.0
89.346741200,6067.0
89.363452469,6013.0
89.380163738,6045.0
89.396875007,5858.0
89.413586276,5834.0
89.430297545,5701.0
89.447008814,5509.0
89.463720083,5459.0
89.480431352,5291.0
89.497142621,5153.0
89.513853890,5188.0
89.530565159,4986.0
89.547276428,5023.0
89.563987697,4855.0
89.580698966,4758.0
89.597410235,4680.0
89.614121504,4589.0
89.630832773,4771.0
89.647544042,4717.0
89.664255311,4645.0
89.680966580,4787.0
89.697677849,4719.0
89.714389118,4814.0
89.731100387,4612.0
89.747811656,4665.0
89.764522925,4615.0
89.781234194,4580.0
89.797945463,4552.0
89.814656732,4665.0
89.831368001,4653.0
89.848079270,4653.0
89.864790539,4663.0
89.881501808,4622.0
89.898213077,4615.0
89.914924345,4649.0
89.931635614,4629.0
89.948346883,4511.0
89.965058152,4683.0
89.981769421,4575.0
89.998480690,4529.0
90.015191959,4633.0
90.031903228,4650.0
90.048614497,4511.0
90.065325766,4533.0
90.082037035,4661.0
90.098748304,4594.0
90.115459573,4444.0
90.132170842,4586.0
90.148882111,4694.0
90.165593380,4489.0
90.182304649,4674.0
90.199015918,4657.0
90.215727187,4614.0
90.232438456,4577.0
90.249149725,4565.0
90.265860994,4653.0
90.282572263,4582.0
90.299283532,4695.0
90.315994801,4472.0
90.332706070,4598.0
90.349417339,4616.0
90.366128608,4600.0
90.382839877,4546.0
90.399551146,4677.0
90.416262415,4569.0
90.432973684,4544.0
90.449684953,4594.0
90.466396222,4480.0
90.483107491,4599.0
90.499818760,4679.0
90.516530029,4675.0
90.533241298,4579.0
90.549952567,4700.0
90.566663836,4605.0
90.583375105,4595.0
90.600086374,4661.0
90.616797643,4695.0
90.633508912,4561.0
90.650220181,4551.0
90.666931450,4658.0
90.683642719,4610.0
90.700353988,4505.0
90.717065257,4610.0
90.733776525,4604.0
90.750487794,4538.0
90.767199063,4519.0
90.783910332,4578.0
90.800621601,4585.0
90.817332870,4623.0
90.834044139,4560.0
90.850755408,4621.0
90.867466677,4609.0
90.884177946,4587.0
90.900889215,4579.0
90.917600484,4722.0
90.934311753,4601.0
90.951023022,4545.0
90.967734291,4601.0
90.984445560,4725.0
91.001156829,4510.0
91.017868098,4511.0
91.034579367,4767.0
91.051290636,4725.0
91.068001905,4619.0
91.084713174,4511.0
91.101424443,4609.0
91.118135712,4612.0
91.134846981,4581.0
91.151558250,4582.0
91.168269519,4620.0
91.184980788,4586.0
91.201692057,4605.0
91.218403326,4557.0
91.235114595,4679.0
91.251825864,4529.0
91.268537133,4574.0
91.285248402,4607.0
91.301959671,4610.0
91.318670940,4700.0
91.335382209,4593.0
91.352093478,4648.0
91.368804747,4598.0
91.385516016,4614.0
91.402227285,4577.0
91.418938554,4692.0
91.435649823,4461.0
91.452361092,4574.0
91.469072361,4507.0
91.485783630,4716.0
91.502494899,4578.0
91.519206168,4606.0
91.535917436,4597.0
91.552628705,4731.0
91.569339974,4678.0
91.586051243,4625.0
91.602762512,4724.0
91.619473781,4749.0
91.636185050,4640.0
91.652896319,4728.0
91.669607588,4711.0
91.686318857,4742.0
91.703030126,4607.0
91.719741395,4736.0
91.736452664,4701.0
91.753163933,4689.0
91.769875202,4684.0
91.786586471,4622.0
91.803297740,4687.0
91.820009009,4685.0
91.836720278,4715.0
91.853431547,4673.0
91.870142816,4806.0
91.886854085,4778.0
91.903565354,4657.0
91.920276623,4698.0
91.936987892,4739.0
91.953699161,4865.0
91.970410430,4671.0
91.987121699,4739.0
92.003832968,4716.0
92.020544237,4758.0
92.037255506,4677.0
92.053966775,4735.0
92.070678044,4561.0
92.087389313,4634.0
92.104100582,4734.0
92.120811851,4788.0
92.137523120,4669.0
92.154234389,4682.0
92.170945658,4714.0
92.187656927,4780.0
92.204368196,4692.0
92.221079465,4690.0
92.237790734,4782.0
92.254502003,4622.0
92.271213272,4623.0
92.287924541,4653.0
92.304635810,4788.0
92.321347079,4674.0
92.338058347,4686.0
92.354769616,4743.0
92.371480885,4665.0
92.388192154,4771.0
92.404903423,4742.0
92.421614692,4752.0
92.438325961,4761.0
92.455037230,4581.0
92.471748499,4582.0
92.488459768,4653.0
92.505171037,4755.0
92.521882306,4521.0
92.538593575,4500.0
92.555304844,4721.0
92.572016113,4674.0
92.588727382,4599.0
92.605438651,4644.0
92.622149920,4571.0
92.638861189,4708.0
92.655572458,4678.0
92.672283727,4754.0
92.688994996,4753.0
92.705706265,4676.0
92.722417534,4638.0
92.739128803,4613.0
92.755840072,4555.0
92.772551341,4681.0
92.789262610,4749.0
92.805973879,4566.0
92.822685148,4674.0
92.839396417,4750.0
92.856107686,4649.0
92.872818955,4616.0
92.889530224,4642.0
92.906241493,4737.0
92.922952762,4527.0
92.939664031,4545.0
92.956375300,4633.0
92.973086569,4665.0
92.989797838,4607.0
93.006509107,4476.0
93.023220376,4544.0
93.039931645,4577.0
93.056642914,4701.0
93.073354183,4689.0
93.090065452,4666.0
93.106776721,4646.0
93.123487990,4606.0
93.140199258,4573.0
93.156910527,4745.0
93.173621796,4666.0
93.190333065,4598.0
93.207044334,4884.0
93.223755603,4645.0
93.240466872,4543.0
93.257178141,4665.0
93.273889410,4564.0
93.290600679,4575.0
93.307311948,4640.0
93.324023217,4677.0
93.340734486,4716.0
93.357445755,4649.0
93.374157024,4584.0
93.390868293,4631.0
93.407579562,4668.0
93.424290831,4509.0
93.441002100,4721.0
93.457713369,4581.0
93.474424638,4643.0
93.491135907,4544.0
93.507847176,4627.0
93.524558445,4578.0
93.541269714,4657.0
93.557980983,4569.0
93.574692252,4736.0
93.591403521,4617.0
93.608114790,4695.0
93.624826059,4672.0
93.641537328,4874.0
93.658248597,4739.0
93.674959866,4705.0
93.691671135,4687.0
93.708382404,4758.0
93.725093673,4613.0
93.741804942,4757.0
93.758516211,4677.0
93.775227480,4680.0
93.791938749,4743.0
93.808650018,4673.0
93.825361287,4644.0
93.842072556,4850.0
93.858783825,4743.0
93.875495094,4803.0
93.892206363,4737.0
93.908917632,4772.0
93.925628901,4806.0
93.942340170,4652.0
93.959051438,4902.0
93.975762707,4929.0
93.992473976,5002.0
94.009185245,4997.0
94.025896514,5363.0
94.042607783,5548.0
94.059319052,5718.0
94.076030321,5867.0
94.092741590,6328.0
94.109452859,6749.0
94.126164128,7359.0
94.142875397,7817.0
94.159586666,8583.0
94.176297935,9107.0
94.193009204,9816.0
94.209720473,9880.0
94.226431742,9660.0
94.243143011,9198.0
94.259854280,8319.0
94.276565549,7842.0
94.293276818,7343.0
94.309988087,7093.0
94.326699356,7109.0
94.343410625,7329.0
94.360121894,7030.0
94.376833163,7027.0
94.393544432,6671.0
94.410255701,6543.0
94.426966970,6619.0
94.443678239,6550.0
94.460389508,6573.0
94.477100777,7004.0
94.493812046,7100.0
94.510523315,7472.0
94.527234584,7371.0
94.543945853,6848.0
94.560657122,6580.0
94.577368391,6245.0
94.594079660,6006.0
94.610790929,6055.0
94.627502198,5851.0
94.644213467,5768.0
94.660924736,5682.0
94.677636005,5508.0
94.694347274,5463.0
94.711058543,5073.0
94.727769812,5063.0
94.744481081,4882.0
94.761192349,4762.0
94.777903618,4909.0
94.794614887,4779.0
94.811326156,4624.0
94.828037425,4745.0
94.844748694,4761.0
94.861459963,4606.0
94.878171232,4700.0
94.894882501,4571.0
94.911593770,4650.0
94.928305039,4656.0
94.945016308,4676.0
94.961727577,4668.0
94.978438846,4711.0
94.995150115,4592.0
95.011861384,4682.0
95.028572653,4618.0
95.045283922,4679.0
95.061995191,4430.0
95.078706460,4528.0
95.095417729,4561.0
95.112128998,4658.0
95.128840267,4599.0
95.145551536,4628.0
95.162262805,4760.0
95.178974074,4520.0
95.195685343,4626.0
95.212396612,4739.0
95.229107881,4733.0
95.245819150,4544.0
95.262530419,4546.0
95.279241688,4573.0
95.295952957,4596.0
95.312664226,4729.0
95.329375495,4712.0
95.346086764,4645.0
95.362798033,4612.0
95.379509302,4397.0
95.396220571,4628.0
95.412931840,4618.0
95.429643109,4577.0
95.446354378,4578.0
95.463065647,4578.0
95.479776916,4603.0
95.496488185,4496.0
95.513199454,4500.0
95.529910723,4528.0
95.546621992,4563.0
95.563333260,4652.0
95.580044529,4513.0
95.596755798,4592.0
95.613467067,4621.0
95.630178336,4574.0
95.646889605,4598.0
95.663600874,4500.0
95.680312143,4554.0
95.697023412,4646.0
95.713734681,4565.0
95.730445950,4563.0
95.747157219,4774.0
95.763868488,4595.0
95.780579757,4450.0
95.797291026,4696.0
95.814002295,4366.0
95.830713564,4636.0
95.847424833,4448.0
95.864136102,4541.0
95.880847371,4721.0
95.897558640,4574.0
95.914269909,4487.0
95.930981178,4614.0
95.947692447,4591.0
95.964403716,4568.0
95.981114985,4682.0
95.997826254,4585.0
96.014537523,4627.0
96.031248792,4606.0
96.047960061,4492.0
96.064671330,4587.0
96.081382599,4552.0
96.098093868,4505.0
96.114805137,4553.0
96.131516406,4602.0
96.148227675,4566.0
96.164938944,4598.0
96.181650213,4586.0
96.198361482,4516.0
96.215072751,4594.0
96.231784020,4522.0
96.248495289,4506.0
96.265206558,4494.0
96.281917827,4515.0
96.298629096,4522.0
96.315340365,4679.0
96.332051634,4565.0
96.348762903,4527.0
96.365474171,4638.0
96.382185440,4628.0
96.398896709,4551.0
96.415607978,4580.0
96.432319247,4609.0
96.449030516,4504.0
96.465741785,4591.0
96.482453054,4594.0
96.499164323,4504.0
96.515875592,4512.0
96.532586861,4544.0
96.549298130,4538.0
96.566009399,4577.0
96.582720668,4597.0
96.599431937,4571.0
96.616143206,4552.0
96.632854475,4531.0
96.649565744,4625.0
96.666277013,4514.0
96.682988282,4578.0
96.699699551,4444.0
96.716410820,4526.0
96.733122089,4530.0
96.749833358,4572.0
96.766544627,4623.0
96.783255896,4532.0
96.799967165,4555.0
96.816678434,4458.0
96.833389703,4509.0
96.850100972,4394.0
96.866812241,4526.0
96.883523510,4583.0
96.900234779,4521.0
96.916946048,4530.0
96.933657317,4599.0
96.950368586,4417.0
96.967079855,4606.0
96.983791124,4452.0
97.000502393,4660.0
97.017213662,4539.0
97.033924931,4611.0
97.050636200,4571.0
97.067347469,4531.0
97.084058738,4717.0
97.100770007,4631.0
97.117481276,4509.0
97.134192545,4593.0
97.150903814,4470.0
97.167615083,4582.0
97.184326351,4550.0
97.201037620,4602.0
97.217748889,4530.0
97.234460158,4483.0
97.251171427,4668.0
97.267882696,4462.0
97.284593965,4624.0
97.301305234,4586.0
97.318016503,4527.0
97.334727772,4558.0
97.351439041,4358.0
97.368150310,4519.0
97.384861579,4585.0
97.401572848,4545.0
97.418284117,4382.0
97.434995386,4493.0
97.451706655,4588.0
97.468417924,4515.0
97.485129193,4469.0
97.501840462,4670.0
97.518551731,4545.0
97.535263000,4528.0
97.551974269,4561.0
97.568685538,4472.0
97.585396807,4465.0
97.602108076,4604.0
97.618819345,4598.0
97.635530614,4450.0
97.652241883,4616.0
97.668953152,4727.0
97.685664421,4533.0
97.702375690,4566.0
97.719086959,4625.0
97.735798228,4520.0
97.752509497,4591.0
97.769220766,4427.0
97.785932035,4602.0
97.802643304,4435.0
97.819354573,4525.0
97.836065842,4521.0
97.852777111,4487.0
97.869488380,4565.0
97.886199649,4551.0
97.902910918,4539.0
97.919622187,4452.0
97.936333456,4542.0
97.953044725,4445.0
97.969755994,4483.0
97.986467262,4361.0
98.003178531,4576.0
98.019889800,4528.0
98.036601069,4511.0
98.053312338,4548.0
98.070023607,4554.0
98.086734876,4464.0
98.103446145,4635.0
98.120157414,4514.0
98.136868683,4398.0
98.153579952,4590.0
98.170291221,4464.0
98.187002490,4525.0
98.203713759,4498.0
98.220425028,4544.0
98.237136297,4530.0
98.253847566,4556.0
98.270558835,4540.0
98.287270104,4558.0
98.303981373,4595.0
98.320692642,4556.0
98.337403911,4463.0
98.354115180,4653.0
98.370826449,4481.0
98.387537718,4531.0
98.404248987,4511.0
98.420960256,4316.0
98.437671525,4505.0
98.454382794,4469.0
98.471094063,4487.0
98.487805332,4447.0
98.504516601,4531.0
98.521227870,4563.0
98.537939139,4508.0
98.554650408,4434.0
98.571361677,4591.0
98.588072946,4616.0
98.604784215,4443.0
98.621495484,4544.0
98.638206753,4476.0
98.654918022,4476.0
98.671629291,4386.0
98.688340560,4444.0
98.705051829,4449.0
98.721763098,4519.0
98.738474367,4549.0
98.755185636,4509.0
98.771896905,4697.0
98.788608173,4543.0
98.805319442,4449.0
98.822030711,4624.0
98.838741980,4607.0
98.855453249,4606.0
98.872164518,4636.0
98.888875787,4470.0
98.905587056,4532.0
98.922298325,4642.0
98.939009594,4539.0
98.955720863,4694.0
98.972432132,4504.0
98.989143401,4464.0
99.005854670,4459.0
99.022565939,4484.0
99.039277208,4551.0
99.055988477,4538.0
99.072699746,4544.0
99.089411015,4583.0
99.106122284,4413.0
99.122833553,4503.0
99.139544822,4463.0
99.156256091,4454.0
99.172967360,4566.0
99.189678629,4533.0
99.206389898,4389.0
99.223101167,4491.0
99.239812436,4558.0
99.256523705,4487.0
99.273234974,4603.0
99.289946243,4512.0
99.306657512,4643.0
99.323368781,4608.0
99.340080050,4487.0
99.356791319,4479.0
99.373502588,4610.0
99.390213857,4556.0
99.406925126,4575.0
99.423636395,4439.0
99.440347664,4530.0
99.457058933,4535.0
99.473770202,4574.0
99.490481471,4514.0
99.507192740,4647.0
99.523904009,4524.0
99.540615278,4458.0
99.557326547,4519.0
99.574037816,4585.0
99.590749084,4429.0
99.607460353,4571.0
99.624171622,4480.0
99.640882891,4611.0
99.657594160,4512.0
99.674305429,4658.0
99.691016698,4637.0
99.707727967,4435.0
99.724439236,4621.0
99.741150505,4467.0
99.757861774,4420.0
99.774573043,4510.0
99.791284312,4536.0
99.807995581,4438.0
99.824706850,4464.0
99.841418119,4458.0
99.858129388,4510.0
99.874840657,4573.0
99.891551926,4505.0
99.908263195,4619.0
99.924974464,4458.0
99.941685733,4413.0
99.958397002,4556.0
99.975108271,4409.0
99.991819540,4563.0
