[Measurement conditions]
Sample identification,
Comment - 1,"finito"
Comment - 2,"Configuration=MRI TC-Basic Stage, Owner=User-1, Creation date=26-10-2009 9:18:44"
Comment - 3,"Goniometer=PW3050/60 (Theta/Theta); Minimum step size 2Theta:0.001; Minimum step size Omega:0.001"
Comment - 4,"Sample stage=MRI TC-Basic (PtRh heat strip)"
Comment - 5,"Diffractometer system=XPERT-PRO"
Comment - 6,"Measurement program=FlatStage, Owner=joana, Creation date=03-08-2011 15:43:53"
Anode material,Cu
K-Alpha1 wavelength,1.5405980
K-Alpha2 wavelength,1.5444260
Ratio K-Alpha2/K-Alpha1,0.500
Divergence slit,Fixed,0.76mm
Monochromator used,NO
Generator voltage, 45
Tube current, 40
File date and time,06/Dec/2012 22:29
Unit cell,
h k l, 0 0 0
Temperature [K],573
Scan axis,Gonio
Scan range,24.999999996,100.000175174
Scan step size,0.0167113
No. of points, 4488
Scan type,CONTINUOUS
Time per step,53.340
[Scan points]
Angle,Intensity
25.008355630,4691.0
25.025066899,4769.0
25.041778168,4761.0
25.058489437,4831.0
25.075200706,4653.0
25.091911975,4785.0
25.108623244,4735.0
25.125334513,4743.0
25.142045782,4838.0
25.158757051,4718.0
25.175468320,4763.0
25.192179589,4654.0
25.208890858,4879.0
25.225602127,4828.0
25.242313396,4693.0
25.259024665,4652.0
25.275735934,4740.0
25.292447203,4667.0
25.309158472,4658.0
25.325869741,4761.0
25.342581010,4716.0
25.359292279,4776.0
25.376003548,4679.0
25.392714817,4720.0
25.409426086,4750.0
25.426137354,4781.0
25.442848623,4588.0
25.459559892,4752.0
25.476271161,4749.0
25.492982430,4636.0
25.509693699,4739.0
25.526404968,4735.0
25.543116237,4688.0
25.559827506,4854.0
25.576538775,4810.0
25.593250044,4583.0
25.609961313,4707.0
25.626672582,4644.0
25.643383851,4668.0
25.660095120,4771.0
25.676806389,4713.0
25.693517658,4776.0
25.710228927,4806.0
25.726940196,4693.0
25.743651465,4712.0
25.760362734,4687.0
25.777074003,4592.0
25.793785272,4682.0
25.810496541,4746.0
25.827207810,4786.0
25.843919079,4890.0
25.860630348,4614.0
25.877341617,4702.0
25.894052886,4650.0
25.910764155,4698.0
25.927475424,4779.0
25.944186693,4696.0
25.960897962,4677.0
25.977609231,4832.0
25.994320500,4706.0
26.011031769,4834.0
26.027743038,4659.0
26.044454307,4777.0
26.061165576,4623.0
26.077876845,4738.0
26.094588114,4811.0
26.111299383,4650.0
26.128010652,4643.0
26.144721921,4860.0
26.161433190,4789.0
26.178144459,4827.0
26.194855728,4674.0
26.211566997,4827.0
26.228278265,4674.0
26.244989534,4706.0
26.261700803,4675.0
26.278412072,4686.0
26.295123341,4687.0
26.311834610,4838.0
26.328545879,4723.0
26.345257148,4631.0
26.361968417,4769.0
26.378679686,4774.0
26.395390955,4750.0
26.412102224,4742.0
26.428813493,4797.0
26.445524762,4780.0
26.462236031,4521.0
26.478947300,4790.0
26.495658569,4731.0
26.512369838,4749.0
26.529081107,4707.0
26.545792376,4645.0
26.562503645,4675.0
26.579214914,4839.0
26.595926183,4764.0
26.612637452,4559.0
26.629348721,4771.0
26.646059990,4521.0
26.662771259,4637.0
26.679482528,4795.0
26.696193797,4748.0
26.712905066,4778.0
26.729616335,4773.0
26.746327604,4824.0
26.763038873,4853.0
26.779750142,4772.0
26.796461411,4775.0
26.813172680,4675.0
26.829883949,4608.0
26.846595218,4563.0
26.863306487,4725.0
26.880017756,4648.0
26.896729025,4712.0
26.913440294,4686.0
26.930151563,4773.0
26.946862832,4604.0
26.963574101,4655.0
26.980285370,4785.0
26.996996639,4659.0
27.013707908,4619.0
27.030419176,4744.0
27.047130445,4633.0
27.063841714,4713.0
27.080552983,4665.0
27.097264252,4762.0
27.113975521,4702.0
27.130686790,4712.0
27.147398059,4724.0
27.164109328,4651.0
27.180820597,4657.0
27.197531866,4830.0
27.214243135,4700.0
27.230954404,4608.0
27.247665673,4797.0
27.264376942,4679.0
27.281088211,4710.0
27.297799480,4592.0
27.314510749,4568.0
27.331222018,4760.0
27.347933287,4857.0
27.364644556,4654.0
27.381355825,4663.0
27.398067094,4797.0
27.414778363,4562.0
27.431489632,4522.0
27.448200901,4665.0
27.464912170,4640.0
27.481623439,4714.0
27.498334708,4764.0
27.515045977,4640.0
27.531757246,4712.0
27.548468515,4679.0
27.565179784,4733.0
27.581891053,4645.0
27.598602322,4662.0
27.615313591,4691.0
27.632024860,4649.0
27.648736129,4652.0
27.665447398,4730.0
27.682158667,4569.0
27.698869936,4760.0
27.715581205,4679.0
27.732292474,4777.0
27.749003743,4846.0
27.765715012,4719.0
27.782426281,4676.0
27.799137550,4686.0
27.815848819,4683.0
27.832560087,4763.0
27.849271356,4704.0
27.865982625,4673.0
27.882693894,4759.0
27.899405163,4687.0
27.916116432,4744.0
27.932827701,4674.0
27.949538970,4549.0
27.966250239,4595.0
27.982961508,4640.0
27.999672777,4794.0
28.016384046,4699.0
28.033095315,4699.0
28.049806584,4661.0
28.066517853,4594.0
28.083229122,4613.0
28.099940391,4582.0
28.116651660,4623.0
28.133362929,4650.0
28.150074198,4666.0
28.166785467,4737.0
28.183496736,4593.0
28.200208005,4654.0
28.216919274,4778.0
28.233630543,4745.0
28.250341812,4582.0
28.267053081,4712.0
28.283764350,4674.0
28.300475619,4712.0
28.317186888,4638.0
28.333898157,4663.0
28.350609426,4722.0
28.367320695,4742.0
28.384031964,4734.0
28.400743233,4747.0
28.417454502,4660.0
28.434165771,4918.0
28.450877040,4761.0
28.467588309,4620.0
28.484299578,4726.0
28.501010847,4679.0
28.517722116,4732.0
28.534433385,4744.0
28.551144654,4572.0
28.567855923,4669.0
28.584567192,4783.0
28.601278461,4709.0
28.617989730,4611.0
28.634700999,4718.0
28.651412267,4761.0
28.668123536,4640.0
28.684834805,4686.0
28.701546074,4703.0
28.718257343,4693.0
28.734968612,4736.0
28.751679881,4568.0
28.768391150,4682.0
28.785102419,4679.0
28.801813688,4693.0
28.818524957,4610.0
28.835236226,4697.0
28.851947495,4732.0
28.868658764,4721.0
28.885370033,4802.0
28.902081302,4736.0
28.918792571,4613.0
28.935503840,4700.0
28.952215109,4679.0
28.968926378,4723.0
28.985637647,4746.0
29.002348916,4770.0
29.019060185,4721.0
29.035771454,4838.0
29.052482723,4613.0
29.069193992,4549.0
29.085905261,4768.0
29.102616530,4748.0
29.119327799,4723.0
29.136039068,4748.0
29.152750337,4664.0
29.169461606,4585.0
29.186172875,4629.0
29.202884144,4707.0
29.219595413,4665.0
29.236306682,4630.0
29.253017951,4653.0
29.269729220,4627.0
29.286440489,4655.0
29.303151758,4553.0
29.319863027,4523.0
29.336574296,4588.0
29.353285565,4625.0
29.369996834,4530.0
29.386708103,4735.0
29.403419372,4748.0
29.420130641,4584.0
29.436841910,4592.0
29.453553178,4646.0
29.470264447,4683.0
29.486975716,4645.0
29.503686985,4744.0
29.520398254,4640.0
29.537109523,4637.0
29.553820792,4707.0
29.570532061,4682.0
29.587243330,4576.0
29.603954599,4567.0
29.620665868,4701.0
29.637377137,4621.0
29.654088406,4703.0
29.670799675,4642.0
29.687510944,4755.0
29.704222213,4616.0
29.720933482,4712.0
29.737644751,4574.0
29.754356020,4735.0
29.771067289,4699.0
29.787778558,4556.0
29.804489827,4637.0
29.821201096,4591.0
29.837912365,4695.0
29.854623634,4652.0
29.871334903,4597.0
29.888046172,4482.0
29.904757441,4680.0
29.921468710,4625.0
29.938179979,4766.0
29.954891248,4673.0
29.971602517,4717.0
29.988313786,4716.0
30.005025055,4623.0
30.021736324,4656.0
30.038447593,4827.0
30.055158862,4610.0
30.071870131,4710.0
30.088581400,4675.0
30.105292669,4515.0
30.122003938,4648.0
30.138715207,4730.0
30.155426476,4787.0
30.172137745,4568.0
30.188849014,4627.0
30.205560283,4606.0
30.222271552,4733.0
30.238982821,4698.0
30.255694089,4651.0
30.272405358,4676.0
30.289116627,4629.0
30.305827896,4604.0
30.322539165,4779.0
30.339250434,4634.0
30.355961703,4706.0
30.372672972,4657.0
30.389384241,4595.0
30.406095510,4571.0
30.422806779,4537.0
30.439518048,4697.0
30.456229317,4773.0
30.472940586,4586.0
30.489651855,4588.0
30.506363124,4638.0
30.523074393,4671.0
30.539785662,4663.0
30.556496931,4628.0
30.573208200,4670.0
30.589919469,4563.0
30.606630738,4683.0
30.623342007,4668.0
30.640053276,4664.0
30.656764545,4601.0
30.673475814,4578.0
30.690187083,4633.0
30.706898352,4631.0
30.723609621,4671.0
30.740320890,4592.0
30.757032159,4640.0
30.773743428,4768.0
30.790454697,4796.0
30.807165966,4601.0
30.823877235,4607.0
30.840588504,4673.0
30.857299773,4507.0
30.874011042,4608.0
30.890722311,4560.0
30.907433580,4724.0
30.924144849,4724.0
30.940856118,4750.0
30.957567387,4572.0
30.974278656,4732.0
30.990989925,4648.0
31.007701194,4632.0
31.024412463,4557.0
31.041123732,4662.0
31.057835000,4618.0
31.074546269,4753.0
31.091257538,4551.0
31.107968807,4673.0
31.124680076,4686.0
31.141391345,4662.0
31.158102614,4540.0
31.174813883,4804.0
31.191525152,4607.0
31.208236421,4717.0
31.224947690,4455.0
31.241658959,4665.0
31.258370228,4642.0
31.275081497,4684.0
31.291792766,4605.0
31.308504035,4740.0
31.325215304,4593.0
31.341926573,4580.0
31.358637842,4625.0
31.375349111,4641.0
31.392060380,4657.0
31.408771649,4471.0
31.425482918,4750.0
31.442194187,4656.0
31.458905456,4651.0
31.475616725,4616.0
31.492327994,4498.0
31.509039263,4683.0
31.525750532,4521.0
31.542461801,4641.0
31.559173070,4680.0
31.575884339,4596.0
31.592595608,4751.0
31.609306877,4733.0
31.626018146,4615.0
31.642729415,4630.0
31.659440684,4719.0
31.676151953,4550.0
31.692863222,4678.0
31.709574491,4610.0
31.726285760,4652.0
31.742997029,4626.0
31.759708298,4717.0
31.776419567,4610.0
31.793130836,4694.0
31.809842105,4654.0
31.826553374,4621.0
31.843264643,4756.0
31.859975912,4607.0
31.876687180,4660.0
31.893398449,4528.0
31.910109718,4693.0
31.926820987,4515.0
31.943532256,4716.0
31.960243525,4636.0
31.976954794,4698.0
31.993666063,4670.0
32.010377332,4547.0
32.027088601,4649.0
32.043799870,4618.0
32.060511139,4753.0
32.077222408,4592.0
32.093933677,4693.0
32.110644946,4654.0
32.127356215,4580.0
32.144067484,4717.0
32.160778753,4608.0
32.177490022,4522.0
32.194201291,4586.0
32.210912560,4693.0
32.227623829,4638.0
32.244335098,4681.0
32.261046367,4668.0
32.277757636,4693.0
32.294468905,4694.0
32.311180174,4590.0
32.327891443,4598.0
32.344602712,4699.0
32.361313981,4607.0
32.378025250,4616.0
32.394736519,4710.0
32.411447788,4650.0
32.428159057,4662.0
32.444870326,4716.0
32.461581595,4654.0
32.478292864,4612.0
32.495004133,4612.0
32.511715402,4633.0
32.528426671,4679.0
32.545137940,4780.0
32.561849209,4541.0
32.578560478,4626.0
32.595271747,4530.0
32.611983016,4786.0
32.628694285,4645.0
32.645405554,4528.0
32.662116823,4602.0
32.678828091,4669.0
32.695539360,4662.0
32.712250629,4529.0
32.728961898,4661.0
32.745673167,4516.0
32.762384436,4516.0
32.779095705,4624.0
32.795806974,4757.0
32.812518243,4699.0
32.829229512,4611.0
32.845940781,4583.0
32.862652050,4668.0
32.879363319,4719.0
32.896074588,4610.0
32.912785857,4582.0
32.929497126,4730.0
32.946208395,4619.0
32.962919664,4615.0
32.979630933,4616.0
32.996342202,4558.0
33.013053471,4663.0
33.029764740,4708.0
33.046476009,4667.0
33.063187278,4610.0
33.079898547,4595.0
33.096609816,4654.0
33.113321085,4615.0
33.130032354,4739.0
33.146743623,4735.0
33.163454892,4562.0
33.180166161,4721.0
33.196877430,4634.0
33.213588699,4658.0
33.230299968,4719.0
33.247011237,4632.0
33.263722506,4720.0
33.280433775,4692.0
33.297145044,4642.0
33.313856313,4651.0
33.330567582,4738.0
33.347278851,4664.0
33.363990120,4665.0
33.380701389,4648.0
33.397412658,4588.0
33.414123927,4702.0
33.430835196,4642.0
33.447546465,4666.0
33.464257734,4638.0
33.480969002,4644.0
33.497680271,4508.0
33.514391540,4594.0
33.531102809,4594.0
33.547814078,4649.0
33.564525347,4670.0
33.581236616,4497.0
33.597947885,4691.0
33.614659154,4564.0
33.631370423,4662.0
33.648081692,4558.0
33.664792961,4594.0
33.681504230,4634.0
33.698215499,4746.0
33.714926768,4547.0
33.731638037,4552.0
33.748349306,4582.0
33.765060575,4680.0
33.781771844,4734.0
33.798483113,4564.0
33.815194382,4679.0
33.831905651,4711.0
33.848616920,4553.0
33.865328189,4646.0
33.882039458,4650.0
33.898750727,4783.0
33.915461996,4705.0
33.932173265,4663.0
33.948884534,4692.0
33.965595803,4530.0
33.982307072,4692.0
33.999018341,4552.0
34.015729610,4571.0
34.032440879,4598.0
34.049152148,4729.0
34.065863417,4503.0
34.082574686,4622.0
34.099285955,4631.0
34.115997224,4687.0
34.132708493,4690.0
34.149419762,4652.0
34.166131031,4599.0
34.182842300,4667.0
34.199553569,4630.0
34.216264838,4709.0
34.232976107,4508.0
34.249687376,4801.0
34.266398645,4626.0
34.283109913,4670.0
34.299821182,4600.0
34.316532451,4736.0
34.333243720,4545.0
34.349954989,4575.0
34.366666258,4578.0
34.383377527,4733.0
34.400088796,4739.0
34.416800065,4648.0
34.433511334,4692.0
34.450222603,4579.0
34.466933872,4592.0
34.483645141,4720.0
34.500356410,4644.0
34.517067679,4566.0
34.533778948,4638.0
34.550490217,4763.0
34.567201486,4650.0
34.583912755,4747.0
34.600624024,4594.0
34.617335293,4673.0
34.634046562,4662.0
34.650757831,4555.0
34.667469100,4731.0
34.684180369,4721.0
34.700891638,4574.0
34.717602907,4663.0
34.734314176,4586.0
34.751025445,4689.0
34.767736714,4771.0
34.784447983,4654.0
34.801159252,4683.0
34.817870521,4733.0
34.834581790,4736.0
34.851293059,4675.0
34.868004328,4611.0
34.884715597,4633.0
34.901426866,4642.0
34.918138135,4622.0
34.934849404,4653.0
34.951560673,4630.0
34.968271942,4638.0
34.984983211,4695.0
35.001694480,4772.0
35.018405749,4662.0
35.035117018,4597.0
35.051828287,4660.0
35.068539556,4621.0
35.085250825,4703.0
35.101962093,4443.0
35.118673362,4598.0
35.135384631,4762.0
35.152095900,4499.0
35.168807169,4493.0
35.185518438,4705.0
35.202229707,4638.0
35.218940976,4523.0
35.235652245,4569.0
35.252363514,4649.0
35.269074783,4691.0
35.285786052,4597.0
35.302497321,4710.0
35.319208590,4648.0
35.335919859,4655.0
35.352631128,4607.0
35.369342397,4674.0
35.386053666,4597.0
35.402764935,4492.0
35.419476204,4602.0
35.436187473,4627.0
35.452898742,4518.0
35.469610011,4597.0
35.486321280,4678.0
35.503032549,4640.0
35.519743818,4598.0
35.536455087,4716.0
35.553166356,4665.0
35.569877625,4547.0
35.586588894,4740.0
35.603300163,4640.0
35.620011432,4680.0
35.636722701,4744.0
35.653433970,4737.0
35.670145239,4661.0
35.686856508,4562.0
35.703567777,4617.0
35.720279046,4775.0
35.736990315,4750.0
35.753701584,4636.0
35.770412853,4702.0
35.787124122,4696.0
35.803835391,4608.0
35.820546660,4661.0
35.837257929,4822.0
35.853969198,4764.0
35.870680467,4794.0
35.887391736,4675.0
35.904103004,4622.0
35.920814273,4708.0
35.937525542,4592.0
35.954236811,4682.0
35.970948080,4712.0
35.987659349,4849.0
36.004370618,4538.0
36.021081887,4595.0
36.037793156,4651.0
36.054504425,4730.0
36.071215694,4706.0
36.087926963,4644.0
36.104638232,4671.0
36.121349501,4718.0
36.138060770,4722.0
36.154772039,4682.0
36.171483308,4713.0
36.188194577,4654.0
36.204905846,4710.0
36.221617115,4687.0
36.238328384,4754.0
36.255039653,4670.0
36.271750922,4862.0
36.288462191,4531.0
36.305173460,4751.0
36.321884729,4526.0
36.338595998,4620.0
36.355307267,4577.0
36.372018536,4674.0
36.388729805,4679.0
36.405441074,4698.0
36.422152343,4681.0
36.438863612,4611.0
36.455574881,4518.0
36.472286150,4570.0
36.488997419,4699.0
36.505708688,4661.0
36.522419957,4611.0
36.539131226,4658.0
36.555842495,4627.0
36.572553764,4576.0
36.589265033,4669.0
36.605976302,4646.0
36.622687571,4612.0
36.639398840,4606.0
36.656110109,4665.0
36.672821378,4794.0
36.689532647,4722.0
36.706243915,4719.0
36.722955184,4589.0
36.739666453,4622.0
36.756377722,4635.0
36.773088991,4681.0
36.789800260,4679.0
36.806511529,4564.0
36.823222798,4594.0
36.839934067,4700.0
36.856645336,4738.0
36.873356605,4648.0
36.890067874,4732.0
36.906779143,4670.0
36.923490412,4706.0
36.940201681,4562.0
36.956912950,4672.0
36.973624219,4788.0
36.990335488,4650.0
37.007046757,4765.0
37.023758026,4689.0
37.040469295,4605.0
37.057180564,4523.0
37.073891833,4725.0
37.090603102,4597.0
37.107314371,4693.0
37.124025640,4801.0
37.140736909,4647.0
37.157448178,4678.0
37.174159447,4606.0
37.190870716,4793.0
37.207581985,4623.0
37.224293254,4653.0
37.241004523,4641.0
37.257715792,4629.0
37.274427061,4621.0
37.291138330,4697.0
37.307849599,4712.0
37.324560868,4706.0
37.341272137,4559.0
37.357983406,4853.0
37.374694675,4698.0
37.391405944,4734.0
37.408117213,4637.0
37.424828482,4790.0
37.441539751,4656.0
37.458251020,4755.0
37.474962289,4625.0
37.491673558,4864.0
37.508384826,4582.0
37.525096095,4618.0
37.541807364,4787.0
37.558518633,4692.0
37.575229902,4714.0
37.591941171,4616.0
37.608652440,4606.0
37.625363709,4663.0
37.642074978,4677.0
37.658786247,4669.0
37.675497516,4860.0
37.692208785,4710.0
37.708920054,4803.0
37.725631323,4722.0
37.742342592,4758.0
37.759053861,4802.0
37.775765130,4630.0
37.792476399,4745.0
37.809187668,4764.0
37.825898937,4673.0
37.842610206,4748.0
37.859321475,4789.0
37.876032744,4707.0
37.892744013,4622.0
37.909455282,4673.0
37.926166551,4658.0
37.942877820,4716.0
37.959589089,4795.0
37.976300358,4776.0
37.993011627,4767.0
38.009722896,4805.0
38.026434165,4745.0
38.043145434,4677.0
38.059856703,4631.0
38.076567972,4829.0
38.093279241,4929.0
38.109990510,4727.0
38.126701779,4750.0
38.143413048,4846.0
38.160124317,4890.0
38.176835586,4806.0
38.193546855,4816.0
38.210258124,4775.0
38.226969393,4963.0
38.243680662,4762.0
38.260391931,4624.0
38.277103200,4763.0
38.293814469,4790.0
38.310525738,4809.0
38.327237006,4777.0
38.343948275,4741.0
38.360659544,4833.0
38.377370813,4672.0
38.394082082,4785.0
38.410793351,4739.0
38.427504620,4745.0
38.444215889,4839.0
38.460927158,4763.0
38.477638427,4827.0
38.494349696,4963.0
38.511060965,4800.0
38.527772234,4788.0
38.544483503,4788.0
38.561194772,4679.0
38.577906041,4815.0
38.594617310,4833.0
38.611328579,4924.0
38.628039848,4782.0
38.644751117,4928.0
38.661462386,4968.0
38.678173655,4968.0
38.694884924,5168.0
38.711596193,5080.0
38.728307462,5189.0
38.745018731,5225.0
38.761730000,5394.0
38.778441269,5642.0
38.795152538,5701.0
38.811863807,5644.0
38.828575076,5222.0
38.845286345,5153.0
38.861997614,5012.0
38.878708883,4974.0
38.895420152,4889.0
38.912131421,4760.0
38.928842690,4790.0
38.945553959,4962.0
38.962265228,4729.0
38.978976497,4837.0
38.995687766,4901.0
39.012399035,4732.0
39.029110304,4805.0
39.045821573,4819.0
39.062532842,4871.0
39.079244111,4757.0
39.095955380,4634.0
39.112666649,4819.0
39.129377917,4934.0
39.146089186,4770.0
39.162800455,4804.0
39.179511724,4849.0
39.196222993,4807.0
39.212934262,4799.0
39.229645531,4758.0
39.246356800,4881.0
39.263068069,4771.0
39.279779338,4688.0
39.296490607,4720.0
39.313201876,4881.0
39.329913145,4760.0
39.346624414,4877.0
39.363335683,4707.0
39.380046952,4847.0
39.396758221,4701.0
39.413469490,4727.0
39.430180759,4700.0
39.446892028,4781.0
39.463603297,4746.0
39.480314566,4923.0
39.497025835,4649.0
39.513737104,4700.0
39.530448373,4810.0
39.547159642,4748.0
39.563870911,4808.0
39.580582180,4723.0
39.597293449,4960.0
39.614004718,4764.0
39.630715987,4844.0
39.647427256,4715.0
39.664138525,4816.0
39.680849794,4787.0
39.697561063,4902.0
39.714272332,4861.0
39.730983601,4827.0
39.747694870,4876.0
39.764406139,4836.0
39.781117408,4794.0
39.797828677,4838.0
39.814539946,4871.0
39.831251215,4754.0
39.847962484,4732.0
39.864673753,4841.0
39.881385022,4735.0
39.898096291,4827.0
39.914807560,4791.0
39.931518828,4812.0
39.948230097,4860.0
39.964941366,4738.0
39.981652635,4821.0
39.998363904,4863.0
40.015075173,4828.0
40.031786442,4800.0
40.048497711,4784.0
40.065208980,4779.0
40.081920249,4793.0
40.098631518,4771.0
40.115342787,4935.0
40.132054056,4893.0
40.148765325,4764.0
40.165476594,4765.0
40.182187863,4808.0
40.198899132,4830.0
40.215610401,4780.0
40.232321670,4773.0
40.249032939,4828.0
40.265744208,4797.0
40.282455477,4832.0
40.299166746,4892.0
40.315878015,4834.0
40.332589284,4885.0
40.349300553,4798.0
40.366011822,4773.0
40.382723091,4917.0
40.399434360,4882.0
40.416145629,4846.0
40.432856898,4738.0
40.449568167,4929.0
40.466279436,4850.0
40.482990705,4875.0
40.499701974,4810.0
40.516413243,4880.0
40.533124512,4830.0
40.549835781,4889.0
40.566547050,4888.0
40.583258319,4886.0
40.599969588,4910.0
40.616680857,4866.0
40.633392126,4897.0
40.650103395,4990.0
40.666814664,4808.0
40.683525933,4842.0
40.700237202,4857.0
40.716948471,4639.0
40.733659739,4733.0
40.750371008,4825.0
40.767082277,4824.0
40.783793546,4801.0
40.800504815,4869.0
40.817216084,4910.0
40.833927353,4878.0
40.850638622,4866.0
40.867349891,4827.0
40.884061160,4931.0
40.900772429,4877.0
40.917483698,4905.0
40.934194967,4896.0
40.950906236,4878.0
40.967617505,4884.0
40.984328774,4869.0
41.001040043,4784.0
41.017751312,4812.0
41.034462581,4835.0
41.051173850,4758.0
41.067885119,4889.0
41.084596388,4970.0
41.101307657,4857.0
41.118018926,4781.0
41.134730195,4889.0
41.151441464,4894.0
41.168152733,4842.0
41.184864002,4899.0
41.201575271,4927.0
41.218286540,4966.0
41.234997809,4950.0
41.251709078,4831.0
41.268420347,4801.0
41.285131616,4846.0
41.301842885,5040.0
41.318554154,4949.0
41.335265423,4909.0
41.351976692,5052.0
41.368687961,4964.0
41.385399230,4828.0
41.402110499,4901.0
41.418821768,4991.0
41.435533037,4960.0
41.452244306,4990.0
41.468955575,4931.0
41.485666844,5231.0
41.502378113,5128.0
41.519089382,5015.0
41.535800651,5197.0
41.552511919,5324.0
41.569223188,5398.0
41.585934457,5481.0
41.602645726,5732.0
41.619356995,5806.0
41.636068264,5784.0
41.652779533,5707.0
41.669490802,5670.0
41.686202071,5886.0
41.702913340,5812.0
41.719624609,5785.0
41.736335878,5719.0
41.753047147,5899.0
41.769758416,5664.0
41.786469685,5758.0
41.803180954,5744.0
41.819892223,5810.0
41.836603492,5997.0
41.853314761,5831.0
41.870026030,5861.0
41.886737299,5978.0
41.903448568,5903.0
41.920159837,5855.0
41.936871106,5818.0
41.953582375,5929.0
41.970293644,5992.0
41.987004913,5794.0
42.003716182,5953.0
42.020427451,5990.0
42.037138720,6011.0
42.053849989,5969.0
42.070561258,6035.0
42.087272527,5880.0
42.103983796,6049.0
42.120695065,6093.0
42.137406334,6064.0
42.154117603,6095.0
42.170828872,6321.0
42.187540141,6196.0
42.204251410,6242.0
42.220962679,6221.0
42.237673948,6224.0
42.254385217,6125.0
42.271096486,6056.0
42.287807755,6322.0
42.304519024,6125.0
42.321230293,6037.0
42.337941562,6188.0
42.354652830,6053.0
42.371364099,6209.0
42.388075368,6239.0
42.404786637,6205.0
42.421497906,6105.0
42.438209175,6310.0
42.454920444,6354.0
42.471631713,6438.0
42.488342982,6301.0
42.505054251,6203.0
42.521765520,6361.0
42.538476789,6330.0
42.555188058,6640.0
42.571899327,6474.0
42.588610596,6589.0
42.605321865,6667.0
42.622033134,6714.0
42.638744403,6892.0
42.655455672,6938.0
42.672166941,7188.0
42.688878210,7010.0
42.705589479,7336.0
42.722300748,7661.0
42.739012017,8040.0
42.755723286,8300.0
42.772434555,8704.0
42.789145824,9352.0
42.805857093,9980.0
42.822568362,11047.0
42.839279631,11707.0
42.855990900,12764.0
42.872702169,13967.0
42.889413438,15521.0
42.906124707,17248.0
42.922835976,19073.0
42.939547245,21602.0
42.956258514,25598.0
42.972969783,30684.0
42.989681052,38660.0
43.006392321,50897.0
43.023103590,70012.0
43.039814859,98186.0
43.056526128,140329.0
43.073237397,195516.0
43.089948666,266014.0
43.106659935,330968.0
43.123371204,364343.0
43.140082473,339935.0
43.156793741,270527.0
43.173505010,203486.0
43.190216279,167483.0
43.206927548,169630.0
43.223638817,184234.0
43.240350086,184743.0
43.257061355,158711.0
43.273772624,112069.0
43.290483893,68751.0
43.307195162,40074.0
43.323906431,25564.0
43.340617700,19483.0
43.357328969,16091.0
43.374040238,14136.0
43.390751507,12549.0
43.407462776,11761.0
43.424174045,10650.0
43.440885314,9720.0
43.457596583,9216.0
43.474307852,8724.0
43.491019121,8196.0
43.507730390,7696.0
43.524441659,7601.0
43.541152928,7327.0
43.557864197,7220.0
43.574575466,7055.0
43.591286735,6872.0
43.607998004,6821.0
43.624709273,6936.0
43.641420542,6652.0
43.658131811,6703.0
43.674843080,6800.0
43.691554349,6519.0
43.708265618,6484.0
43.724976887,6367.0
43.741688156,6461.0
43.758399425,6544.0
43.775110694,6413.0
43.791821963,6170.0
43.808533232,6166.0
43.825244501,6220.0
43.841955770,6222.0
43.858667039,6098.0
43.875378308,6268.0
43.892089577,6097.0
43.908800846,6099.0
43.925512115,6015.0
43.942223384,6076.0
43.958934652,5844.0
43.975645921,5953.0
43.992357190,5942.0
44.009068459,5998.0
44.025779728,5825.0
44.042490997,5967.0
44.059202266,5959.0
44.075913535,5922.0
44.092624804,5865.0
44.109336073,5828.0
44.126047342,5907.0
44.142758611,5819.0
44.159469880,5811.0
44.176181149,5819.0
44.192892418,5744.0
44.209603687,5889.0
44.226314956,5849.0
44.243026225,5860.0
44.259737494,5760.0
44.276448763,5722.0
44.293160032,5716.0
44.309871301,5736.0
44.326582570,5634.0
44.343293839,5627.0
44.360005108,5625.0
44.376716377,5702.0
44.393427646,5587.0
44.410138915,5596.0
44.426850184,5638.0
44.443561453,5651.0
44.460272722,5679.0
44.476983991,5652.0
44.493695260,5645.0
44.510406529,5742.0
44.527117798,5697.0
44.543829067,5622.0
44.560540336,5686.0
44.577251605,5759.0
44.593962874,5645.0
44.610674143,5621.0
44.627385412,5598.0
44.644096681,5549.0
44.660807950,5446.0
44.677519219,5679.0
44.694230488,5545.0
44.710941757,5538.0
44.727653026,5530.0
44.744364295,5467.0
44.761075564,5585.0
44.777786832,5485.0
44.794498101,5631.0
44.811209370,5669.0
44.827920639,5562.0
44.844631908,5507.0
44.861343177,5463.0
44.878054446,5576.0
44.894765715,5448.0
44.911476984,5540.0
44.928188253,5466.0
44.944899522,5546.0
44.961610791,5539.0
44.978322060,5616.0
44.995033329,5542.0
45.011744598,5649.0
45.028455867,5782.0
45.045167136,5942.0
45.061878405,6031.0
45.078589674,6108.0
45.095300943,6256.0
45.112012212,5967.0
45.128723481,5942.0
45.145434750,5801.0
45.162146019,5545.0
45.178857288,5557.0
45.195568557,5650.0
45.212279826,5349.0
45.228991095,5473.0
45.245702364,5540.0
45.262413633,5419.0
45.279124902,5403.0
45.295836171,5634.0
45.312547440,5425.0
45.329258709,5282.0
45.345969978,5324.0
45.362681247,5541.0
45.379392516,5324.0
45.396103785,5338.0
45.412815054,5444.0
45.429526323,5441.0
45.446237592,5382.0
45.462948861,5460.0
45.479660130,5250.0
45.496371399,5266.0
45.513082668,5276.0
45.529793937,5429.0
45.546505206,5225.0
45.563216475,5203.0
45.579927743,5403.0
45.596639012,5425.0
45.613350281,5367.0
45.630061550,5316.0
45.646772819,5300.0
45.663484088,5455.0
45.680195357,5448.0
45.696906626,5411.0
45.713617895,5346.0
45.730329164,5343.0
45.747040433,5280.0
45.763751702,5352.0
45.780462971,5333.0
45.797174240,5412.0
45.813885509,5184.0
45.830596778,5300.0
45.847308047,5327.0
45.864019316,5248.0
45.880730585,5285.0
45.897441854,5277.0
45.914153123,5387.0
45.930864392,5362.0
45.947575661,5248.0
45.964286930,5240.0
45.980998199,5161.0
45.997709468,5276.0
46.014420737,5319.0
46.031132006,5336.0
46.047843275,5214.0
46.064554544,5363.0
46.081265813,5318.0
46.097977082,5214.0
46.114688351,5223.0
46.131399620,5317.0
46.148110889,5197.0
46.164822158,5207.0
46.181533427,5298.0
46.198244696,5149.0
46.214955965,5167.0
46.231667234,5433.0
46.248378503,5315.0
46.265089772,5245.0
46.281801041,5270.0
46.298512310,5309.0
46.315223579,5473.0
46.331934848,5349.0
46.348646117,5251.0
46.365357386,5386.0
46.382068654,5356.0
46.398779923,5576.0
46.415491192,5518.0
46.432202461,5492.0
46.448913730,5459.0
46.465624999,5446.0
46.482336268,5433.0
46.499047537,5370.0
46.515758806,5581.0
46.532470075,5312.0
46.549181344,5402.0
46.565892613,5377.0
46.582603882,5401.0
46.599315151,5372.0
46.616026420,5241.0
46.632737689,5214.0
46.649448958,5187.0
46.666160227,5243.0
46.682871496,5352.0
46.699582765,5293.0
46.716294034,5250.0
46.733005303,5344.0
46.749716572,5457.0
46.766427841,5594.0
46.783139110,5568.0
46.799850379,5794.0
46.816561648,5635.0
46.833272917,5781.0
46.849984186,5700.0
46.866695455,5732.0
46.883406724,5727.0
46.900117993,5573.0
46.916829262,5406.0
46.933540531,5447.0
46.950251800,5475.0
46.966963069,5610.0
46.983674338,5362.0
47.000385607,5308.0
47.017096876,5280.0
47.033808145,5304.0
47.050519414,5210.0
47.067230683,5194.0
47.083941952,5104.0
47.100653221,5180.0
47.117364490,5212.0
47.134075759,5138.0
47.150787028,5033.0
47.167498297,5293.0
47.184209565,5251.0
47.200920834,5241.0
47.217632103,5232.0
47.234343372,5179.0
47.251054641,5125.0
47.267765910,5159.0
47.284477179,5208.0
47.301188448,5169.0
47.317899717,5206.0
47.334610986,5190.0
47.351322255,5132.0
47.368033524,5105.0
47.384744793,5127.0
47.401456062,5107.0
47.418167331,5226.0
47.434878600,5230.0
47.451589869,5198.0
47.468301138,5094.0
47.485012407,5102.0
47.501723676,5068.0
47.518434945,5149.0
47.535146214,5201.0
47.551857483,5129.0
47.568568752,5160.0
47.585280021,5084.0
47.601991290,5101.0
47.618702559,5153.0
47.635413828,5094.0
47.652125097,4998.0
47.668836366,5034.0
47.685547635,5176.0
47.702258904,4990.0
47.718970173,5133.0
47.735681442,5186.0
47.752392711,5135.0
47.769103980,5180.0
47.785815249,5047.0
47.802526518,5138.0
47.819237787,5174.0
47.835949056,5164.0
47.852660325,5093.0
47.869371594,5192.0
47.886082863,5175.0
47.902794132,5212.0
47.919505401,5148.0
47.936216670,5178.0
47.952927939,5245.0
47.969639208,5148.0
47.986350477,5098.0
48.003061745,5068.0
48.019773014,5130.0
48.036484283,5037.0
48.053195552,5188.0
48.069906821,4999.0
48.086618090,5146.0
48.103329359,5034.0
48.120040628,5221.0
48.136751897,5262.0
48.153463166,5156.0
48.170174435,5112.0
48.186885704,5164.0
48.203596973,5229.0
48.220308242,5156.0
48.237019511,5322.0
48.253730780,5165.0
48.270442049,5304.0
48.287153318,5328.0
48.303864587,5225.0
48.320575856,5279.0
48.337287125,5412.0
48.353998394,5541.0
48.370709663,5380.0
48.387420932,5726.0
48.404132201,5710.0
48.420843470,5901.0
48.437554739,5642.0
48.454266008,5810.0
48.470977277,5824.0
48.487688546,5821.0
48.504399815,5778.0
48.521111084,5812.0
48.537822353,5867.0
48.554533622,5907.0
48.571244891,5717.0
48.587956160,5771.0
48.604667429,5755.0
48.621378698,5949.0
48.638089967,5683.0
48.654801236,5745.0
48.671512505,5946.0
48.688223774,5802.0
48.704935043,5895.0
48.721646312,5825.0
48.738357581,5866.0
48.755068850,5927.0
48.771780119,5888.0
48.788491388,5919.0
48.805202656,5801.0
48.821913925,5816.0
48.838625194,5978.0
48.855336463,5949.0
48.872047732,5968.0
48.888759001,5991.0
48.905470270,5895.0
48.922181539,5838.0
48.938892808,5939.0
48.955604077,5935.0
48.972315346,6030.0
48.989026615,6030.0
49.005737884,5943.0
49.022449153,6061.0
49.039160422,6135.0
49.055871691,6152.0
49.072582960,6159.0
49.089294229,6144.0
49.106005498,6186.0
49.122716767,6061.0
49.139428036,5992.0
49.156139305,5871.0
49.172850574,6026.0
49.189561843,6069.0
49.206273112,5999.0
49.222984381,6167.0
49.239695650,6025.0
49.256406919,5900.0
49.273118188,5873.0
49.289829457,6058.0
49.306540726,6044.0
49.323251995,5907.0
49.339963264,6047.0
49.356674533,6029.0
49.373385802,5920.0
49.390097071,6148.0
49.406808340,5999.0
49.423519609,6042.0
49.440230878,6095.0
49.456942147,5947.0
49.473653416,6112.0
49.490364685,6237.0
49.507075954,6099.0
49.523787223,6139.0
49.540498492,6321.0
49.557209761,6039.0
49.573921030,6237.0
49.590632299,6110.0
49.607343567,6175.0
49.624054836,6412.0
49.640766105,6392.0
49.657477374,6456.0
49.674188643,6520.0
49.690899912,6589.0
49.707611181,6515.0
49.724322450,6549.0
49.741033719,6722.0
49.757744988,6804.0
49.774456257,7011.0
49.791167526,7102.0
49.807878795,7343.0
49.824590064,7616.0
49.841301333,7713.0
49.858012602,8296.0
49.874723871,8641.0
49.891435140,9546.0
49.908146409,10318.0
49.924857678,11337.0
49.941568947,12454.0
49.958280216,13373.0
49.974991485,14523.0
49.991702754,15466.0
50.008414023,16779.0
50.025125292,18128.0
50.041836561,20489.0
50.058547830,23473.0
50.075259099,28711.0
50.091970368,36512.0
50.108681637,48945.0
50.125392906,68236.0
50.142104175,97936.0
50.158815444,138879.0
50.175526713,193607.0
50.192237982,252209.0
50.208949251,300555.0
50.225660520,310095.0
50.242371789,272538.0
50.259083058,210350.0
50.275794327,153911.0
50.292505596,126597.0
50.309216865,129626.0
50.325928134,145673.0
50.342639403,161718.0
50.359350672,160966.0
50.376061941,137579.0
50.392773210,101448.0
50.409484478,65332.0
50.426195747,41248.0
50.442907016,27686.0
50.459618285,20659.0
50.476329554,16776.0
50.493040823,14383.0
50.509752092,12807.0
50.526463361,11760.0
50.543174630,10728.0
50.559885899,9978.0
50.576597168,9485.0
50.593308437,8436.0
50.610019706,8128.0
50.626730975,7895.0
50.643442244,7590.0
50.660153513,7230.0
50.676864782,7210.0
50.693576051,7012.0
50.710287320,6919.0
50.726998589,6650.0
50.743709858,6761.0
50.760421127,6622.0
50.777132396,6445.0
50.793843665,6340.0
50.810554934,6428.0
50.827266203,6416.0
50.843977472,6335.0
50.860688741,6212.0
50.877400010,6199.0
50.894111279,6106.0
50.910822548,6186.0
50.927533817,6009.0
50.944245086,6144.0
50.960956355,5889.0
50.977667624,5994.0
50.994378893,5891.0
51.011090162,5832.0
51.027801431,5955.0
51.044512700,6020.0
51.061223969,5647.0
51.077935238,5854.0
51.094646507,5772.0
51.111357776,5708.0
51.128069045,5853.0
51.144780314,5696.0
51.161491583,5784.0
51.178202852,5765.0
51.194914121,5753.0
51.211625390,5651.0
51.228336658,5827.0
51.245047927,5533.0
51.261759196,5694.0
51.278470465,5507.0
51.295181734,5534.0
51.311893003,5646.0
51.328604272,5533.0
51.345315541,5632.0
51.362026810,5557.0
51.378738079,5548.0
51.395449348,5502.0
51.412160617,5547.0
51.428871886,5575.0
51.445583155,5493.0
51.462294424,5328.0
51.479005693,5619.0
51.495716962,5501.0
51.512428231,5454.0
51.529139500,5410.0
51.545850769,5439.0
51.562562038,5458.0
51.579273307,5437.0
51.595984576,5482.0
51.612695845,5387.0
51.629407114,5386.0
51.646118383,5267.0
51.662829652,5446.0
51.679540921,5450.0
51.696252190,5257.0
51.712963459,5246.0
51.729674728,5288.0
51.746385997,5384.0
51.763097266,5324.0
51.779808535,5296.0
51.796519804,5394.0
51.813231073,5330.0
51.829942342,5261.0
51.846653611,5232.0
51.863364880,5162.0
51.880076149,5273.0
51.896787418,5257.0
51.913498687,5317.0
51.930209956,5319.0
51.946921225,5355.0
51.963632494,5383.0
51.980343763,5186.0
51.997055032,5392.0
52.013766301,5199.0
52.030477569,5188.0
52.047188838,5163.0
52.063900107,5281.0
52.080611376,5313.0
52.097322645,5243.0
52.114033914,5207.0
52.130745183,5325.0
52.147456452,5267.0
52.164167721,5155.0
52.180878990,5135.0
52.197590259,5339.0
52.214301528,5250.0
52.231012797,5229.0
52.247724066,5214.0
52.264435335,5143.0
52.281146604,5189.0
52.297857873,5307.0
52.314569142,5136.0
52.331280411,5164.0
52.347991680,5207.0
52.364702949,5034.0
52.381414218,5227.0
52.398125487,5163.0
52.414836756,5254.0
52.431548025,5183.0
52.448259294,5204.0
52.464970563,5137.0
52.481681832,5301.0
52.498393101,5102.0
52.515104370,5144.0
52.531815639,5149.0
52.548526908,5163.0
52.565238177,5155.0
52.581949446,5122.0
52.598660715,5156.0
52.615371984,5199.0
52.632083253,5228.0
52.648794522,5079.0
52.665505791,5061.0
52.682217060,5075.0
52.698928329,5056.0
52.715639598,5156.0
52.732350867,5134.0
52.749062136,5144.0
52.765773405,5171.0
52.782484674,5108.0
52.799195943,5204.0
52.815907212,5174.0
52.832618480,5048.0
52.849329749,5090.0
52.866041018,5060.0
52.882752287,5161.0
52.899463556,5034.0
52.916174825,5158.0
52.932886094,5148.0
52.949597363,4970.0
52.966308632,5127.0
52.983019901,5047.0
52.999731170,4971.0
53.016442439,5031.0
53.033153708,4878.0
53.049864977,5126.0
53.066576246,5049.0
53.083287515,5033.0
53.099998784,4963.0
53.116710053,5023.0
53.133421322,4932.0
53.150132591,5016.0
53.166843860,5033.0
53.183555129,4972.0
53.200266398,5002.0
53.216977667,4993.0
53.233688936,5131.0
53.250400205,5024.0
53.267111474,4991.0
53.283822743,4950.0
53.300534012,5153.0
53.317245281,4930.0
53.333956550,5133.0
53.350667819,5011.0
53.367379088,5009.0
53.384090357,4922.0
53.400801626,4929.0
53.417512895,5116.0
53.434224164,4911.0
53.450935433,4935.0
53.467646702,5015.0
53.484357971,5138.0
53.501069240,5083.0
53.517780509,4939.0
53.534491778,5038.0
53.551203047,5000.0
53.567914316,4902.0
53.584625585,5037.0
53.601336854,4832.0
53.618048123,4955.0
53.634759391,4923.0
53.651470660,5048.0
53.668181929,4976.0
53.684893198,5005.0
53.701604467,4948.0
53.718315736,5005.0
53.735027005,5004.0
53.751738274,4945.0
53.768449543,4930.0
53.785160812,4961.0
53.801872081,4941.0
53.818583350,4940.0
53.835294619,4828.0
53.852005888,4857.0
53.868717157,4841.0
53.885428426,4881.0
53.902139695,4915.0
53.918850964,4920.0
53.935562233,4799.0
53.952273502,4891.0
53.968984771,4825.0
53.985696040,4969.0
54.002407309,4898.0
54.019118578,4898.0
54.035829847,4987.0
54.052541116,4921.0
54.069252385,4939.0
54.085963654,5106.0
54.102674923,4899.0
54.119386192,4972.0
54.136097461,4801.0
54.152808730,4951.0
54.169519999,4863.0
54.186231268,4961.0
54.202942537,4881.0
54.219653806,4888.0
54.236365075,5070.0
54.253076344,4796.0
54.269787613,4972.0
54.286498882,4975.0
54.303210151,5097.0
54.319921420,5141.0
54.336632689,4986.0
54.353343958,5099.0
54.370055227,5106.0
54.386766496,5140.0
54.403477765,4786.0
54.420189034,4951.0
54.436900303,5086.0
54.453611571,5016.0
54.470322840,5064.0
54.487034109,5046.0
54.503745378,5189.0
54.520456647,5261.0
54.537167916,5184.0
54.553879185,5380.0
54.570590454,5429.0
54.587301723,5290.0
54.604012992,5436.0
54.620724261,5361.0
54.637435530,5272.0
54.654146799,5319.0
54.670858068,5128.0
54.687569337,5062.0
54.704280606,5234.0
54.720991875,5150.0
54.737703144,5183.0
54.754414413,5198.0
54.771125682,5017.0
54.787836951,5035.0
54.804548220,4953.0
54.821259489,4919.0
54.837970758,4904.0
54.854682027,4915.0
54.871393296,4785.0
54.888104565,5065.0
54.904815834,4863.0
54.921527103,4860.0
54.938238372,4819.0
54.954949641,4807.0
54.971660910,4897.0
54.988372179,4858.0
55.005083448,4875.0
55.021794717,4857.0
55.038505986,4789.0
55.055217255,4807.0
55.071928524,5043.0
55.088639793,4818.0
55.105351062,4873.0
55.122062331,4882.0
55.138773600,4914.0
55.155484869,4816.0
55.172196138,4775.0
55.188907407,4980.0
55.205618676,4815.0
55.222329945,4830.0
55.239041214,4868.0
55.255752482,4777.0
55.272463751,4835.0
55.289175020,4879.0
55.305886289,4721.0
55.322597558,4789.0
55.339308827,4737.0
55.356020096,4807.0
55.372731365,4810.0
55.389442634,4828.0
55.406153903,4719.0
55.422865172,4895.0
55.439576441,4905.0
55.456287710,4836.0
55.472998979,4815.0
55.489710248,4774.0
55.506421517,4888.0
55.523132786,4797.0
55.539844055,4753.0
55.556555324,4880.0
55.573266593,4967.0
55.589977862,4821.0
55.606689131,4850.0
55.623400400,4891.0
55.640111669,4759.0
55.656822938,4959.0
55.673534207,4745.0
55.690245476,4747.0
55.706956745,4763.0
55.723668014,4783.0
55.740379283,4684.0
55.757090552,4691.0
55.773801821,4713.0
55.790513090,4800.0
55.807224359,4751.0
55.823935628,4689.0
55.840646897,4747.0
55.857358166,4833.0
55.874069435,4785.0
55.890780704,4638.0
55.907491973,4829.0
55.924203242,4708.0
55.940914511,4693.0
55.957625780,4740.0
55.974337049,4873.0
55.991048318,4837.0
56.007759587,4791.0
56.024470856,4713.0
56.041182125,4768.0
56.057893393,4803.0
56.074604662,4761.0
56.091315931,4761.0
56.108027200,4768.0
56.124738469,4782.0
56.141449738,4764.0
56.158161007,4692.0
56.174872276,4679.0
56.191583545,4872.0
56.208294814,4722.0
56.225006083,4602.0
56.241717352,4707.0
56.258428621,4712.0
56.275139890,4774.0
56.291851159,4810.0
56.308562428,4715.0
56.325273697,4741.0
56.341984966,4716.0
56.358696235,4764.0
56.375407504,4605.0
56.392118773,4718.0
56.408830042,4722.0
56.425541311,4818.0
56.442252580,4683.0
56.458963849,4876.0
56.475675118,4791.0
56.492386387,4665.0
56.509097656,4777.0
56.525808925,4684.0
56.542520194,4788.0
56.559231463,4726.0
56.575942732,4785.0
56.592654001,4848.0
56.609365270,4933.0
56.626076539,4629.0
56.642787808,4697.0
56.659499077,4708.0
56.676210346,4576.0
56.692921615,4683.0
56.709632884,4749.0
56.726344153,4743.0
56.743055422,4762.0
56.759766691,4668.0
56.776477960,4676.0
56.793189229,4777.0
56.809900498,4830.0
56.826611767,4760.0
56.843323036,4679.0
56.860034304,4712.0
56.876745573,4813.0
56.893456842,4764.0
56.910168111,4815.0
56.926879380,4709.0
56.943590649,4645.0
56.960301918,4807.0
56.977013187,4689.0
56.993724456,4774.0
57.010435725,4732.0
57.027146994,4788.0
57.043858263,4690.0
57.060569532,4713.0
57.077280801,4785.0
57.093992070,4686.0
57.110703339,4699.0
57.127414608,4764.0
57.144125877,4678.0
57.160837146,4604.0
57.177548415,4823.0
57.194259684,4651.0
57.210970953,4848.0
57.227682222,4707.0
57.244393491,4705.0
57.261104760,4706.0
57.277816029,4610.0
57.294527298,4585.0
57.311238567,4776.0
57.327949836,4654.0
57.344661105,4695.0
57.361372374,4780.0
57.378083643,4699.0
57.394794912,4743.0
57.411506181,4633.0
57.428217450,4684.0
57.444928719,4768.0
57.461639988,4723.0
57.478351257,4688.0
57.495062526,4749.0
57.511773795,4678.0
57.528485064,4706.0
57.545196333,4729.0
57.561907602,4681.0
57.578618871,4734.0
57.595330140,4553.0
57.612041409,4685.0
57.628752678,4727.0
57.645463947,4663.0
57.662175216,4770.0
57.678886484,4791.0
57.695597753,4664.0
57.712309022,4792.0
57.729020291,4595.0
57.745731560,4848.0
57.762442829,4661.0
57.779154098,4744.0
57.795865367,4621.0
57.812576636,4637.0
57.829287905,4776.0
57.845999174,4643.0
57.862710443,4636.0
57.879421712,4776.0
57.896132981,4695.0
57.912844250,4740.0
57.929555519,4697.0
57.946266788,4685.0
57.962978057,4756.0
57.979689326,4723.0
57.996400595,4581.0
58.013111864,4651.0
58.029823133,4710.0
58.046534402,4728.0
58.063245671,4703.0
58.079956940,4636.0
58.096668209,4519.0
58.113379478,4661.0
58.130090747,4659.0
58.146802016,4689.0
58.163513285,4683.0
58.180224554,4672.0
58.196935823,4762.0
58.213647092,4753.0
58.230358361,4513.0
58.247069630,4539.0
58.263780899,4747.0
58.280492168,4555.0
58.297203437,4663.0
58.313914706,4640.0
58.330625975,4746.0
58.347337244,4640.0
58.364048513,4644.0
58.380759782,4678.0
58.397471051,4737.0
58.414182320,4543.0
58.430893589,4673.0
58.447604858,4540.0
58.464316127,4713.0
58.481027395,4661.0
58.497738664,4667.0
58.514449933,4719.0
58.531161202,4714.0
58.547872471,4589.0
58.564583740,4638.0
58.581295009,4790.0
58.598006278,4667.0
58.614717547,4569.0
58.631428816,4670.0
58.648140085,4558.0
58.664851354,4551.0
58.681562623,4667.0
58.698273892,4541.0
58.714985161,4617.0
58.731696430,4630.0
58.748407699,4650.0
58.765118968,4719.0
58.781830237,4656.0
58.798541506,4712.0
58.815252775,4671.0
58.831964044,4669.0
58.848675313,4755.0
58.865386582,4568.0
58.882097851,4696.0
58.898809120,4740.0
58.915520389,4665.0
58.932231658,4704.0
58.948942927,4630.0
58.965654196,4544.0
58.982365465,4603.0
58.999076734,4676.0
59.015788003,4581.0
59.032499272,4515.0
59.049210541,4657.0
59.065921810,4596.0
59.082633079,4654.0
59.099344348,4560.0
59.116055617,4742.0
59.132766886,4550.0
59.149478155,4544.0
59.166189424,4581.0
59.182900693,4600.0
59.199611962,4537.0
59.216323231,4611.0
59.233034500,4660.0
59.249745769,4690.0
59.266457038,4717.0
59.283168306,4727.0
59.299879575,4740.0
59.316590844,4622.0
59.333302113,4591.0
59.350013382,4700.0
59.366724651,4707.0
59.383435920,4690.0
59.400147189,4597.0
59.416858458,4624.0
59.433569727,4648.0
59.450280996,4583.0
59.466992265,4676.0
59.483703534,4578.0
59.500414803,4544.0
59.517126072,4638.0
59.533837341,4650.0
59.550548610,4601.0
59.567259879,4519.0
59.583971148,4490.0
59.600682417,4642.0
59.617393686,4630.0
59.634104955,4542.0
59.650816224,4611.0
59.667527493,4688.0
59.684238762,4648.0
59.700950031,4598.0
59.717661300,4771.0
59.734372569,4565.0
59.751083838,4607.0
59.767795107,4626.0
59.784506376,4685.0
59.801217645,4661.0
59.817928914,4628.0
59.834640183,4567.0
59.851351452,4604.0
59.868062721,4677.0
59.884773990,4605.0
59.901485259,4681.0
59.918196528,4692.0
59.934907797,4657.0
59.951619066,4545.0
59.968330335,4704.0
59.985041604,4629.0
60.001752873,4496.0
60.018464142,4620.0
60.035175411,4492.0
60.051886680,4483.0
60.068597949,4761.0
60.085309217,4770.0
60.102020486,4763.0
60.118731755,4544.0
60.135443024,4603.0
60.152154293,4679.0
60.168865562,4619.0
60.185576831,4560.0
60.202288100,4713.0
60.218999369,4527.0
60.235710638,4576.0
60.252421907,4624.0
60.269133176,4738.0
60.285844445,4606.0
60.302555714,4685.0
60.319266983,4555.0
60.335978252,4666.0
60.352689521,4610.0
60.369400790,4549.0
60.386112059,4531.0
60.402823328,4576.0
60.419534597,4637.0
60.436245866,4562.0
60.452957135,4548.0
60.469668404,4481.0
60.486379673,4606.0
60.503090942,4689.0
60.519802211,4616.0
60.536513480,4473.0
60.553224749,4694.0
60.569936018,4638.0
60.586647287,4697.0
60.603358556,4589.0
60.620069825,4654.0
60.636781094,4580.0
60.653492363,4565.0
60.670203632,4586.0
60.686914901,4620.0
60.703626170,4628.0
60.720337439,4506.0
60.737048708,4561.0
60.753759977,4647.0
60.770471246,4708.0
60.787182515,4615.0
60.803893784,4505.0
60.820605053,4520.0
60.837316322,4643.0
60.854027591,4586.0
60.870738860,4806.0
60.887450129,4617.0
60.904161397,4709.0
60.920872666,4727.0
60.937583935,4692.0
60.954295204,4542.0
60.971006473,4600.0
60.987717742,4607.0
61.004429011,4536.0
61.021140280,4571.0
61.037851549,4460.0
61.054562818,4502.0
61.071274087,4546.0
61.087985356,4618.0
61.104696625,4563.0
61.121407894,4756.0
61.138119163,4519.0
61.154830432,4619.0
61.171541701,4629.0
61.188252970,4605.0
61.204964239,4574.0
61.221675508,4739.0
61.238386777,4505.0
61.255098046,4530.0
61.271809315,4519.0
61.288520584,4549.0
61.305231853,4681.0
61.321943122,4652.0
61.338654391,4681.0
61.355365660,4576.0
61.372076929,4642.0
61.388788198,4600.0
61.405499467,4746.0
61.422210736,4611.0
61.438922005,4486.0
61.455633274,4497.0
61.472344543,4475.0
61.489055812,4708.0
61.505767081,4575.0
61.522478350,4534.0
61.539189619,4419.0
61.555900888,4551.0
61.572612157,4581.0
61.589323426,4592.0
61.606034695,4670.0
61.622745964,4573.0
61.639457233,4563.0
61.656168502,4513.0
61.672879771,4557.0
61.689591040,4355.0
61.706302308,4543.0
61.723013577,4725.0
61.739724846,4578.0
61.756436115,4579.0
61.773147384,4586.0
61.789858653,4541.0
61.806569922,4599.0
61.823281191,4551.0
61.839992460,4588.0
61.856703729,4622.0
61.873414998,4528.0
61.890126267,4582.0
61.906837536,4668.0
61.923548805,4574.0
61.940260074,4664.0
61.956971343,4652.0
61.973682612,4524.0
61.990393881,4616.0
62.007105150,4524.0
62.023816419,4529.0
62.040527688,4692.0
62.057238957,4459.0
62.073950226,4428.0
62.090661495,4636.0
62.107372764,4648.0
62.124084033,4565.0
62.140795302,4501.0
62.157506571,4598.0
62.174217840,4757.0
62.190929109,4542.0
62.207640378,4584.0
62.224351647,4595.0
62.241062916,4538.0
62.257774185,4584.0
62.274485454,4592.0
62.291196723,4598.0
62.307907992,4623.0
62.324619261,4589.0
62.341330530,4599.0
62.358041799,4519.0
62.374753068,4492.0
62.391464337,4590.0
62.408175606,4646.0
62.424886875,4514.0
62.441598144,4591.0
62.458309413,4629.0
62.475020682,4580.0
62.491731951,4541.0
62.508443219,4579.0
62.525154488,4607.0
62.541865757,4466.0
62.558577026,4392.0
62.575288295,4536.0
62.591999564,4587.0
62.608710833,4721.0
62.625422102,4546.0
62.642133371,4592.0
62.658844640,4507.0
62.675555909,4563.0
62.692267178,4663.0
62.708978447,4371.0
62.725689716,4547.0
62.742400985,4542.0
62.759112254,4604.0
62.775823523,4510.0
62.792534792,4518.0
62.809246061,4556.0
62.825957330,4479.0
62.842668599,4523.0
62.859379868,4538.0
62.876091137,4598.0
62.892802406,4608.0
62.909513675,4433.0
62.926224944,4712.0
62.942936213,4520.0
62.959647482,4505.0
62.976358751,4626.0
62.993070020,4680.0
63.009781289,4629.0
63.026492558,4592.0
63.043203827,4598.0
63.059915096,4510.0
63.076626365,4531.0
63.093337634,4549.0
63.110048903,4622.0
63.126760172,4584.0
63.143471441,4521.0
63.160182710,4715.0
63.176893979,4642.0
63.193605248,4542.0
63.210316517,4509.0
63.227027786,4556.0
63.243739055,4473.0
63.260450324,4494.0
63.277161593,4612.0
63.293872862,4475.0
63.310584130,4557.0
63.327295399,4633.0
63.344006668,4530.0
63.360717937,4581.0
63.377429206,4519.0
63.394140475,4617.0
63.410851744,4514.0
63.427563013,4596.0
63.444274282,4572.0
63.460985551,4559.0
63.477696820,4536.0
63.494408089,4614.0
63.511119358,4541.0
63.527830627,4542.0
63.544541896,4665.0
63.561253165,4570.0
63.577964434,4565.0
63.594675703,4616.0
63.611386972,4516.0
63.628098241,4687.0
63.644809510,4696.0
63.661520779,4631.0
63.678232048,4479.0
63.694943317,4484.0
63.711654586,4562.0
63.728365855,4653.0
63.745077124,4554.0
63.761788393,4618.0
63.778499662,4557.0
63.795210931,4572.0
63.811922200,4559.0
63.828633469,4592.0
63.845344738,4429.0
63.862056007,4518.0
63.878767276,4565.0
63.895478545,4613.0
63.912189814,4559.0
63.928901083,4519.0
63.945612352,4540.0
63.962323621,4495.0
63.979034890,4407.0
63.995746159,4626.0
64.012457428,4585.0
64.029168697,4511.0
64.045879966,4605.0
64.062591235,4459.0
64.079302504,4524.0
64.096013773,4528.0
64.112725041,4468.0
64.129436310,4698.0
64.146147579,4462.0
64.162858848,4664.0
64.179570117,4663.0
64.196281386,4604.0
64.212992655,4476.0
64.229703924,4454.0
64.246415193,4502.0
64.263126462,4473.0
64.279837731,4579.0
64.296549000,4588.0
64.313260269,4530.0
64.329971538,4591.0
64.346682807,4531.0
64.363394076,4563.0
64.380105345,4576.0
64.396816614,4580.0
64.413527883,4561.0
64.430239152,4433.0
64.446950421,4571.0
64.463661690,4674.0
64.480372959,4589.0
64.497084228,4615.0
64.513795497,4493.0
64.530506766,4469.0
64.547218035,4579.0
64.563929304,4467.0
64.580640573,4472.0
64.597351842,4500.0
64.614063111,4580.0
64.630774380,4515.0
64.647485649,4627.0
64.664196918,4449.0
64.680908187,4645.0
64.697619456,4488.0
64.714330725,4577.0
64.731041994,4522.0
64.747753263,4516.0
64.764464532,4471.0
64.781175801,4542.0
64.797887070,4621.0
64.814598339,4599.0
64.831309608,4693.0
64.848020877,4462.0
64.864732146,4521.0
64.881443415,4668.0
64.898154684,4400.0
64.914865953,4514.0
64.931577221,4466.0
64.948288490,4467.0
64.964999759,4497.0
64.981711028,4645.0
64.998422297,4483.0
65.015133566,4661.0
65.031844835,4619.0
65.048556104,4457.0
65.065267373,4571.0
65.081978642,4585.0
65.098689911,4510.0
65.115401180,4525.0
65.132112449,4555.0
65.148823718,4657.0
65.165534987,4468.0
65.182246256,4508.0
65.198957525,4420.0
65.215668794,4588.0
65.232380063,4536.0
65.249091332,4746.0
65.265802601,4591.0
65.282513870,4526.0
65.299225139,4514.0
65.315936408,4562.0
65.332647677,4651.0
65.349358946,4521.0
65.366070215,4607.0
65.382781484,4515.0
65.399492753,4641.0
65.416204022,4582.0
65.432915291,4633.0
65.449626560,4605.0
65.466337829,4617.0
65.483049098,4378.0
65.499760367,4595.0
65.516471636,4535.0
65.533182905,4580.0
65.549894174,4660.0
65.566605443,4553.0
65.583316712,4687.0
65.600027981,4441.0
65.616739250,4641.0
65.633450519,4669.0
65.650161788,4573.0
65.666873057,4575.0
65.683584326,4666.0
65.700295595,4655.0
65.717006864,4498.0
65.733718132,4671.0
65.750429401,4578.0
65.767140670,4646.0
65.783851939,4464.0
65.800563208,4582.0
65.817274477,4544.0
65.833985746,4707.0
65.850697015,4628.0
65.867408284,4566.0
65.884119553,4581.0
65.900830822,4536.0
65.917542091,4584.0
65.934253360,4645.0
65.950964629,4616.0
65.967675898,4587.0
65.984387167,4597.0
66.001098436,4508.0
66.017809705,4607.0
66.034520974,4504.0
66.051232243,4508.0
66.067943512,4513.0
66.084654781,4648.0
66.101366050,4542.0
66.118077319,4584.0
66.134788588,4550.0
66.151499857,4558.0
66.168211126,4538.0
66.184922395,4519.0
66.201633664,4542.0
66.218344933,4605.0
66.235056202,4599.0
66.251767471,4482.0
66.268478740,4503.0
66.285190009,4550.0
66.301901278,4572.0
66.318612547,4472.0
66.335323816,4649.0
66.352035085,4609.0
66.368746354,4533.0
66.385457623,4601.0
66.402168892,4413.0
66.418880161,4421.0
66.435591430,4562.0
66.452302699,4391.0
66.469013968,4391.0
66.485725237,4442.0
66.502436506,4568.0
66.519147775,4574.0
66.535859043,4472.0
66.552570312,4590.0
66.569281581,4479.0
66.585992850,4445.0
66.602704119,4698.0
66.619415388,4593.0
66.636126657,4571.0
66.652837926,4519.0
66.669549195,4515.0
66.686260464,4438.0
66.702971733,4646.0
66.719683002,4501.0
66.736394271,4461.0
66.753105540,4552.0
66.769816809,4609.0
66.786528078,4581.0
66.803239347,4627.0
66.819950616,4453.0
66.836661885,4561.0
66.853373154,4608.0
66.870084423,4626.0
66.886795692,4531.0
66.903506961,4542.0
66.920218230,4689.0
66.936929499,4533.0
66.953640768,4603.0
66.970352037,4528.0
66.987063306,4629.0
67.003774575,4554.0
67.020485844,4543.0
67.037197113,4586.0
67.053908382,4663.0
67.070619651,4559.0
67.087330920,4620.0
67.104042189,4524.0
67.120753458,4542.0
67.137464727,4549.0
67.154175996,4520.0
67.170887265,4634.0
67.187598534,4398.0
67.204309803,4457.0
67.221021072,4479.0
67.237732341,4609.0
67.254443610,4495.0
67.271154879,4543.0
67.287866148,4625.0
67.304577417,4536.0
67.321288686,4510.0
67.337999954,4495.0
67.354711223,4503.0
67.371422492,4530.0
67.388133761,4724.0
67.404845030,4564.0
67.421556299,4563.0
67.438267568,4441.0
67.454978837,4618.0
67.471690106,4456.0
67.488401375,4716.0
67.505112644,4636.0
67.521823913,4647.0
67.538535182,4521.0
67.555246451,4530.0
67.571957720,4601.0
67.588668989,4595.0
67.605380258,4631.0
67.622091527,4715.0
67.638802796,4671.0
67.655514065,4485.0
67.672225334,4542.0
67.688936603,4583.0
67.705647872,4598.0
67.722359141,4515.0
67.739070410,4586.0
67.755781679,4551.0
67.772492948,4743.0
67.789204217,4805.0
67.805915486,4666.0
67.822626755,4889.0
67.839338024,4858.0
67.856049293,5030.0
67.872760562,4746.0
67.889471831,4655.0
67.906183100,4685.0
67.922894369,4695.0
67.939605638,4671.0
67.956316907,4713.0
67.973028176,4680.0
67.989739445,4720.0
68.006450714,4714.0
68.023161983,4601.0
68.039873252,4746.0
68.056584521,4611.0
68.073295790,4651.0
68.090007059,4671.0
68.106718328,4662.0
68.123429597,4516.0
68.140140866,4527.0
68.156852134,4575.0
68.173563403,4462.0
68.190274672,4622.0
68.206985941,4545.0
68.223697210,4763.0
68.240408479,4503.0
68.257119748,4496.0
68.273831017,4456.0
68.290542286,4621.0
68.307253555,4585.0
68.323964824,4485.0
68.340676093,4607.0
68.357387362,4524.0
68.374098631,4490.0
68.390809900,4486.0
68.407521169,4580.0
68.424232438,4541.0
68.440943707,4533.0
68.457654976,4575.0
68.474366245,4479.0
68.491077514,4482.0
68.507788783,4662.0
68.524500052,4472.0
68.541211321,4544.0
68.557922590,4439.0
68.574633859,4466.0
68.591345128,4464.0
68.608056397,4511.0
68.624767666,4423.0
68.641478935,4639.0
68.658190204,4427.0
68.674901473,4598.0
68.691612742,4555.0
68.708324011,4611.0
68.725035280,4605.0
68.741746549,4473.0
68.758457818,4628.0
68.775169087,4516.0
68.791880356,4586.0
68.808591625,4573.0
68.825302894,4536.0
68.842014163,4581.0
68.858725432,4550.0
68.875436701,4434.0
68.892147970,4507.0
68.908859239,4555.0
68.925570508,4544.0
68.942281777,4451.0
68.958993045,4513.0
68.975704314,4478.0
68.992415583,4611.0
69.009126852,4666.0
69.025838121,4764.0
69.042549390,4586.0
69.059260659,4626.0
69.075971928,4624.0
69.092683197,4521.0
69.109394466,4460.0
69.126105735,4541.0
69.142817004,4546.0
69.159528273,4696.0
69.176239542,4546.0
69.192950811,4621.0
69.209662080,4421.0
69.226373349,4478.0
69.243084618,4669.0
69.259795887,4539.0
69.276507156,4548.0
69.293218425,4521.0
69.309929694,4515.0
69.326640963,4566.0
69.343352232,4621.0
69.360063501,4483.0
69.376774770,4504.0
69.393486039,4531.0
69.410197308,4601.0
69.426908577,4567.0
69.443619846,4551.0
69.460331115,4668.0
69.477042384,4422.0
69.493753653,4541.0
69.510464922,4584.0
69.527176191,4554.0
69.543887460,4535.0
69.560598729,4436.0
69.577309998,4600.0
69.594021267,4520.0
69.610732536,4480.0
69.627443805,4498.0
69.644155074,4624.0
69.660866343,4568.0
69.677577612,4457.0
69.694288881,4547.0
69.711000150,4535.0
69.727711419,4470.0
69.744422688,4529.0
69.761133956,4486.0
69.777845225,4584.0
69.794556494,4656.0
69.811267763,4655.0
69.827979032,4632.0
69.844690301,4526.0
69.861401570,4533.0
69.878112839,4466.0
69.894824108,4488.0
69.911535377,4631.0
69.928246646,4547.0
69.944957915,4682.0
69.961669184,4555.0
69.978380453,4577.0
69.995091722,4702.0
70.011802991,4570.0
70.028514260,4505.0
70.045225529,4751.0
70.061936798,4481.0
70.078648067,4620.0
70.095359336,4708.0
70.112070605,4553.0
70.128781874,4625.0
70.145493143,4459.0
70.162204412,4460.0
70.178915681,4713.0
70.195626950,4604.0
70.212338219,4597.0
70.229049488,4580.0
70.245760757,4382.0
70.262472026,4579.0
70.279183295,4611.0
70.295894564,4502.0
70.312605833,4562.0
70.329317102,4501.0
70.346028371,4641.0
70.362739640,4489.0
70.379450909,4652.0
70.396162178,4508.0
70.412873447,4529.0
70.429584716,4621.0
70.446295985,4565.0
70.463007254,4611.0
70.479718523,4634.0
70.496429792,4469.0
70.513141061,4623.0
70.529852330,4422.0
70.546563599,4620.0
70.563274867,4515.0
70.579986136,4544.0
70.596697405,4640.0
70.613408674,4534.0
70.630119943,4506.0
70.646831212,4468.0
70.663542481,4578.0
70.680253750,4589.0
70.696965019,4512.0
70.713676288,4639.0
70.730387557,4597.0
70.747098826,4608.0
70.763810095,4659.0
70.780521364,4672.0
70.797232633,4682.0
70.813943902,4658.0
70.830655171,4594.0
70.847366440,4707.0
70.864077709,4673.0
70.880788978,4528.0
70.897500247,4638.0
70.914211516,4754.0
70.930922785,4590.0
70.947634054,4488.0
70.964345323,4745.0
70.981056592,4759.0
70.997767861,4595.0
71.014479130,4583.0
71.031190399,4516.0
71.047901668,4662.0
71.064612937,4693.0
71.081324206,4551.0
71.098035475,4655.0
71.114746744,4666.0
71.131458013,4727.0
71.148169282,4656.0
71.164880551,4667.0
71.181591820,4622.0
71.198303089,4496.0
71.215014358,4733.0
71.231725627,4690.0
71.248436896,4685.0
71.265148165,4670.0
71.281859434,4592.0
71.298570703,4626.0
71.315281972,4636.0
71.331993241,4554.0
71.348704510,4614.0
71.365415779,4772.0
71.382127047,4581.0
71.398838316,4586.0
71.415549585,4542.0
71.432260854,4817.0
71.448972123,4648.0
71.465683392,4725.0
71.482394661,4641.0
71.499105930,4707.0
71.515817199,4599.0
71.532528468,4600.0
71.549239737,4815.0
71.565951006,4733.0
71.582662275,4815.0
71.599373544,4656.0
71.616084813,4638.0
71.632796082,4736.0
71.649507351,4636.0
71.666218620,4589.0
71.682929889,4706.0
71.699641158,4542.0
71.716352427,4778.0
71.733063696,4548.0
71.749774965,4694.0
71.766486234,4765.0
71.783197503,4648.0
71.799908772,4722.0
71.816620041,4841.0
71.833331310,4672.0
71.850042579,4690.0
71.866753848,4598.0
71.883465117,4749.0
71.900176386,4635.0
71.916887655,4691.0
71.933598924,4584.0
71.950310193,4595.0
71.967021462,4687.0
71.983732731,4750.0
72.000444000,4682.0
72.017155269,4601.0
72.033866538,4624.0
72.050577807,4697.0
72.067289076,4608.0
72.084000345,4719.0
72.100711614,4639.0
72.117422883,4655.0
72.134134152,4532.0
72.150845421,4603.0
72.167556690,4653.0
72.184267958,4746.0
72.200979227,4561.0
72.217690496,4681.0
72.234401765,4723.0
72.251113034,4646.0
72.267824303,4762.0
72.284535572,4710.0
72.301246841,4606.0
72.317958110,4749.0
72.334669379,4703.0
72.351380648,4690.0
72.368091917,4677.0
72.384803186,4709.0
72.401514455,4692.0
72.418225724,4804.0
72.434936993,4723.0
72.451648262,4639.0
72.468359531,4835.0
72.485070800,4815.0
72.501782069,4751.0
72.518493338,4708.0
72.535204607,4783.0
72.551915876,4687.0
72.568627145,4760.0
72.585338414,4626.0
72.602049683,4619.0
72.618760952,4709.0
72.635472221,4867.0
72.652183490,4697.0
72.668894759,4614.0
72.685606028,4764.0
72.702317297,4832.0
72.719028566,4820.0
72.735739835,4840.0
72.752451104,4728.0
72.769162373,4587.0
72.785873642,4610.0
72.802584911,4636.0
72.819296180,4699.0
72.836007449,4873.0
72.852718718,4933.0
72.869429987,4843.0
72.886141256,4711.0
72.902852525,4800.0
72.919563794,4891.0
72.936275063,4859.0
72.952986332,4872.0
72.969697601,4658.0
72.986408869,4791.0
73.003120138,4839.0
73.019831407,4781.0
73.036542676,4819.0
73.053253945,4899.0
73.069965214,4809.0
73.086676483,4858.0
73.103387752,4949.0
73.120099021,4804.0
73.136810290,4742.0
73.153521559,4844.0
73.170232828,4969.0
73.186944097,4894.0
73.203655366,4968.0
73.220366635,4846.0
73.237077904,4861.0
73.253789173,5034.0
73.270500442,5072.0
73.287211711,5050.0
73.303922980,5080.0
73.320634249,5151.0
73.337345518,5352.0
73.354056787,5360.0
73.370768056,5396.0
73.387479325,5492.0
73.404190594,5694.0
73.420901863,5689.0
73.437613132,5818.0
73.454324401,5831.0
73.471035670,6006.0
73.487746939,5951.0
73.504458208,6046.0
73.521169477,6176.0
73.537880746,6305.0
73.554592015,6593.0
73.571303284,7043.0
73.588014553,7522.0
73.604725822,8095.0
73.621437091,9370.0
73.638148360,11314.0
73.654859629,14048.0
73.671570898,18556.0
73.688282167,25163.0
73.704993436,34181.0
73.721704705,44488.0
73.738415974,52944.0
73.755127243,56573.0
73.771838512,51718.0
73.788549780,40488.0
73.805261049,29055.0
73.821972318,20074.0
73.838683587,15588.0
73.855394856,13540.0
73.872106125,13638.0
73.888817394,14947.0
73.905528663,17630.0
73.922239932,21641.0
73.938951201,26323.0
73.955662470,29826.0
73.972373739,30607.0
73.989085008,27960.0
74.005796277,21914.0
74.022507546,16488.0
74.039218815,12059.0
74.055930084,9481.0
74.072641353,7944.0
74.089352622,7152.0
74.106063891,6612.0
74.122775160,6245.0
74.139486429,5998.0
74.156197698,5921.0
74.172908967,5608.0
74.189620236,5549.0
74.206331505,5343.0
74.223042774,5285.0
74.239754043,5310.0
74.256465312,5306.0
74.273176581,5046.0
74.289887850,5055.0
74.306599119,5046.0
74.323310388,4943.0
74.340021657,5025.0
74.356732926,5039.0
74.373444195,4919.0
74.390155464,5087.0
74.406866733,4920.0
74.423578002,4950.0
74.440289271,4852.0
74.457000540,4975.0
74.473711809,4852.0
74.490423078,4938.0
74.507134347,4808.0
74.523845616,4780.0
74.540556885,4830.0
74.557268154,4945.0
74.573979423,4717.0
74.590690692,4967.0
74.607401960,4822.0
74.624113229,4866.0
74.640824498,4933.0
74.657535767,4768.0
74.674247036,4850.0
74.690958305,4872.0
74.707669574,4696.0
74.724380843,4834.0
74.741092112,4941.0
74.757803381,4860.0
74.774514650,4784.0
74.791225919,4580.0
74.807937188,4644.0
74.824648457,4730.0
74.841359726,4776.0
74.858070995,4643.0
74.874782264,4838.0
74.891493533,4760.0
74.908204802,4693.0
74.924916071,4717.0
74.941627340,4764.0
74.958338609,4614.0
74.975049878,4739.0
74.991761147,4723.0
75.008472416,4732.0
75.025183685,4833.0
75.041894954,4619.0
75.058606223,4708.0
75.075317492,4780.0
75.092028761,4762.0
75.108740030,4726.0
75.125451299,4687.0
75.142162568,4653.0
75.158873837,4589.0
75.175585106,4695.0
75.192296375,4858.0
75.209007644,4646.0
75.225718913,4643.0
75.242430182,4712.0
75.259141451,4662.0
75.275852720,4667.0
75.292563989,4696.0
75.309275258,4659.0
75.325986527,4682.0
75.342697796,4637.0
75.359409065,4704.0
75.376120334,4668.0
75.392831603,4743.0
75.409542871,4674.0
75.426254140,4700.0
75.442965409,4631.0
75.459676678,4713.0
75.476387947,4678.0
75.493099216,4552.0
75.509810485,4567.0
75.526521754,4558.0
75.543233023,4622.0
75.559944292,4753.0
75.576655561,4763.0
75.593366830,4593.0
75.610078099,4542.0
75.626789368,4796.0
75.643500637,4707.0
75.660211906,4642.0
75.676923175,4680.0
75.693634444,4653.0
75.710345713,4676.0
75.727056982,4742.0
75.743768251,4615.0
75.760479520,4574.0
75.777190789,4692.0
75.793902058,4709.0
75.810613327,4623.0
75.827324596,4684.0
75.844035865,4681.0
75.860747134,4628.0
75.877458403,4653.0
75.894169672,4618.0
75.910880941,4519.0
75.927592210,4701.0
75.944303479,4678.0
75.961014748,4643.0
75.977726017,4615.0
75.994437286,4721.0
76.011148555,4833.0
76.027859824,4538.0
76.044571093,4689.0
76.061282362,4569.0
76.077993631,4528.0
76.094704900,4662.0
76.111416169,4679.0
76.128127438,4735.0
76.144838707,4536.0
76.161549976,4758.0
76.178261245,4683.0
76.194972514,4594.0
76.211683782,4688.0
76.228395051,4553.0
76.245106320,4673.0
76.261817589,4577.0
76.278528858,4659.0
76.295240127,4586.0
76.311951396,4736.0
76.328662665,4492.0
76.345373934,4616.0
76.362085203,4621.0
76.378796472,4517.0
76.395507741,4655.0
76.412219010,4661.0
76.428930279,4669.0
76.445641548,4542.0
76.462352817,4624.0
76.479064086,4589.0
76.495775355,4648.0
76.512486624,4774.0
76.529197893,4630.0
76.545909162,4568.0
76.562620431,4469.0
76.579331700,4572.0
76.596042969,4551.0
76.612754238,4640.0
76.629465507,4502.0
76.646176776,4584.0
76.662888045,4632.0
76.679599314,4543.0
76.696310583,4637.0
76.713021852,4606.0
76.729733121,4674.0
76.746444390,4501.0
76.763155659,4537.0
76.779866928,4556.0
76.796578197,4545.0
76.813289466,4604.0
76.830000735,4579.0
76.846712004,4580.0
76.863423273,4583.0
76.880134542,4594.0
76.896845811,4573.0
76.913557080,4651.0
76.930268349,4737.0
76.946979618,4604.0
76.963690887,4622.0
76.980402156,4572.0
76.997113425,4543.0
77.013824693,4707.0
77.030535962,4601.0
77.047247231,4688.0
77.063958500,4527.0
77.080669769,4619.0
77.097381038,4616.0
77.114092307,4641.0
77.130803576,4599.0
77.147514845,4623.0
77.164226114,4665.0
77.180937383,4639.0
77.197648652,4544.0
77.214359921,4636.0
77.231071190,4548.0
77.247782459,4502.0
77.264493728,4583.0
77.281204997,4529.0
77.297916266,4488.0
77.314627535,4644.0
77.331338804,4519.0
77.348050073,4641.0
77.364761342,4577.0
77.381472611,4622.0
77.398183880,4571.0
77.414895149,4512.0
77.431606418,4615.0
77.448317687,4536.0
77.465028956,4640.0
77.481740225,4510.0
77.498451494,4613.0
77.515162763,4671.0
77.531874032,4638.0
77.548585301,4594.0
77.565296570,4727.0
77.582007839,4606.0
77.598719108,4607.0
77.615430377,4553.0
77.632141646,4575.0
77.648852915,4684.0
77.665564184,4657.0
77.682275453,4651.0
77.698986722,4523.0
77.715697991,4544.0
77.732409260,4574.0
77.749120529,4495.0
77.765831798,4541.0
77.782543067,4530.0
77.799254336,4519.0
77.815965605,4446.0
77.832676873,4565.0
77.849388142,4592.0
77.866099411,4534.0
77.882810680,4612.0
77.899521949,4622.0
77.916233218,4547.0
77.932944487,4618.0
77.949655756,4573.0
77.966367025,4529.0
77.983078294,4506.0
77.999789563,4523.0
78.016500832,4631.0
78.033212101,4666.0
78.049923370,4714.0
78.066634639,4566.0
78.083345908,4612.0
78.100057177,4652.0
78.116768446,4539.0
78.133479715,4724.0
78.150190984,4544.0
78.166902253,4604.0
78.183613522,4648.0
78.200324791,4681.0
78.217036060,4638.0
78.233747329,4544.0
78.250458598,4497.0
78.267169867,4428.0
78.283881136,4445.0
78.300592405,4636.0
78.317303674,4489.0
78.334014943,4597.0
78.350726212,4676.0
78.367437481,4656.0
78.384148750,4486.0
78.400860019,4607.0
78.417571288,4537.0
78.434282557,4539.0
78.450993826,4624.0
78.467705095,4586.0
78.484416364,4575.0
78.501127633,4645.0
78.517838902,4638.0
78.534550171,4675.0
78.551261440,4613.0
78.567972709,4584.0
78.584683978,4535.0
78.601395247,4537.0
78.618106516,4631.0
78.634817784,4553.0
78.651529053,4630.0
78.668240322,4382.0
78.684951591,4414.0
78.701662860,4495.0
78.718374129,4542.0
78.735085398,4608.0
78.751796667,4659.0
78.768507936,4581.0
78.785219205,4592.0
78.801930474,4600.0
78.818641743,4447.0
78.835353012,4529.0
78.852064281,4525.0
78.868775550,4527.0
78.885486819,4662.0
78.902198088,4537.0
78.918909357,4636.0
78.935620626,4627.0
78.952331895,4506.0
78.969043164,4609.0
78.985754433,4660.0
79.002465702,4702.0
79.019176971,4543.0
79.035888240,4654.0
79.052599509,4529.0
79.069310778,4481.0
79.086022047,4597.0
79.102733316,4653.0
79.119444585,4394.0
79.136155854,4589.0
79.152867123,4605.0
79.169578392,4545.0
79.186289661,4528.0
79.203000930,4636.0
79.219712199,4579.0
79.236423468,4403.0
79.253134737,4431.0
79.269846006,4518.0
79.286557275,4566.0
79.303268544,4608.0
79.319979813,4509.0
79.336691082,4503.0
79.353402351,4536.0
79.370113620,4492.0
79.386824889,4522.0
79.403536158,4644.0
79.420247427,4559.0
79.436958695,4636.0
79.453669964,4445.0
79.470381233,4501.0
79.487092502,4559.0
79.503803771,4385.0
79.520515040,4491.0
79.537226309,4482.0
79.553937578,4538.0
79.570648847,4567.0
79.587360116,4581.0
79.604071385,4430.0
79.620782654,4547.0
79.637493923,4502.0
79.654205192,4599.0
79.670916461,4443.0
79.687627730,4662.0
79.704338999,4608.0
79.721050268,4582.0
79.737761537,4522.0
79.754472806,4583.0
79.771184075,4598.0
79.787895344,4610.0
79.804606613,4574.0
79.821317882,4543.0
79.838029151,4633.0
79.854740420,4513.0
79.871451689,4495.0
79.888162958,4540.0
79.904874227,4607.0
79.921585496,4583.0
79.938296765,4527.0
79.955008034,4618.0
79.971719303,4602.0
79.988430572,4613.0
80.005141841,4472.0
80.021853110,4697.0
80.038564379,4648.0
80.055275648,4506.0
80.071986917,4606.0
80.088698186,4525.0
80.105409455,4510.0
80.122120724,4631.0
80.138831993,4671.0
80.155543262,4554.0
80.172254531,4543.0
80.188965800,4583.0
80.205677069,4408.0
80.222388338,4552.0
80.239099606,4607.0
80.255810875,4463.0
80.272522144,4511.0
80.289233413,4617.0
80.305944682,4555.0
80.322655951,4554.0
80.339367220,4711.0
80.356078489,4686.0
80.372789758,4585.0
80.389501027,4597.0
80.406212296,4556.0
80.422923565,4596.0
80.439634834,4454.0
80.456346103,4569.0
80.473057372,4541.0
80.489768641,4480.0
80.506479910,4482.0
80.523191179,4479.0
80.539902448,4614.0
80.556613717,4600.0
80.573324986,4703.0
80.590036255,4581.0
80.606747524,4542.0
80.623458793,4598.0
80.640170062,4500.0
80.656881331,4735.0
80.673592600,4585.0
80.690303869,4586.0
80.707015138,4686.0
80.723726407,4554.0
80.740437676,4692.0
80.757148945,4659.0
80.773860214,4605.0
80.790571483,4564.0
80.807282752,4553.0
80.823994021,4662.0
80.840705290,4610.0
80.857416559,4731.0
80.874127828,4675.0
80.890839097,4634.0
80.907550366,4568.0
80.924261635,4579.0
80.940972904,4504.0
80.957684173,4555.0
80.974395442,4702.0
80.991106711,4574.0
81.007817980,4576.0
81.024529249,4605.0
81.041240518,4586.0
81.057951786,4554.0
81.074663055,4593.0
81.091374324,4376.0
81.108085593,4615.0
81.124796862,4638.0
81.141508131,4607.0
81.158219400,4548.0
81.174930669,4541.0
81.191641938,4608.0
81.208353207,4523.0
81.225064476,4621.0
81.241775745,4535.0
81.258487014,4557.0
81.275198283,4557.0
81.291909552,4631.0
81.308620821,4613.0
81.325332090,4623.0
81.342043359,4403.0
81.358754628,4589.0
81.375465897,4402.0
81.392177166,4540.0
81.408888435,4586.0
81.425599704,4448.0
81.442310973,4511.0
81.459022242,4582.0
81.475733511,4517.0
81.492444780,4511.0
81.509156049,4476.0
81.525867318,4532.0
81.542578587,4531.0
81.559289856,4526.0
81.576001125,4547.0
81.592712394,4597.0
81.609423663,4521.0
81.626134932,4514.0
81.642846201,4578.0
81.659557470,4626.0
81.676268739,4684.0
81.692980008,4657.0
81.709691277,4764.0
81.726402546,4573.0
81.743113815,4606.0
81.759825084,4866.0
81.776536353,4750.0
81.793247622,4803.0
81.809958891,4784.0
81.826670160,4624.0
81.843381429,4733.0
81.860092697,4771.0
81.876803966,4527.0
81.893515235,4650.0
81.910226504,4553.0
81.926937773,4652.0
81.943649042,4636.0
81.960360311,4511.0
81.977071580,4488.0
81.993782849,4569.0
82.010494118,4601.0
82.027205387,4727.0
82.043916656,4658.0
82.060627925,4702.0
82.077339194,4754.0
82.094050463,4570.0
82.110761732,4640.0
82.127473001,4666.0
82.144184270,4595.0
82.160895539,4528.0
82.177606808,4590.0
82.194318077,4465.0
82.211029346,4542.0
82.227740615,4514.0
82.244451884,4574.0
82.261163153,4594.0
82.277874422,4628.0
82.294585691,4573.0
82.311296960,4570.0
82.328008229,4494.0
82.344719498,4581.0
82.361430767,4471.0
82.378142036,4567.0
82.394853305,4502.0
82.411564574,4546.0
82.428275843,4501.0
82.444987112,4583.0
82.461698381,4526.0
82.478409650,4568.0
82.495120919,4531.0
82.511832188,4569.0
82.528543457,4514.0
82.545254726,4413.0
82.561965995,4582.0
82.578677264,4493.0
82.595388533,4483.0
82.612099802,4488.0
82.628811071,4534.0
82.645522340,4573.0
82.662233608,4577.0
82.678944877,4470.0
82.695656146,4383.0
82.712367415,4549.0
82.729078684,4666.0
82.745789953,4458.0
82.762501222,4570.0
82.779212491,4557.0
82.795923760,4413.0
82.812635029,4509.0
82.829346298,4541.0
82.846057567,4626.0
82.862768836,4519.0
82.879480105,4590.0
82.896191374,4519.0
82.912902643,4495.0
82.929613912,4562.0
82.946325181,4441.0
82.963036450,4521.0
82.979747719,4596.0
82.996458988,4472.0
83.013170257,4516.0
83.029881526,4446.0
83.046592795,4512.0
83.063304064,4503.0
83.080015333,4665.0
83.096726602,4525.0
83.113437871,4597.0
83.130149140,4492.0
83.146860409,4564.0
83.163571678,4567.0
83.180282947,4491.0
83.196994216,4616.0
83.213705485,4549.0
83.230416754,4522.0
83.247128023,4637.0
83.263839292,4477.0
83.280550561,4629.0
83.297261830,4479.0
83.313973099,4615.0
83.330684368,4604.0
83.347395637,4577.0
83.364106906,4612.0
83.380818175,4434.0
83.397529444,4487.0
83.414240713,4450.0
83.430951982,4470.0
83.447663251,4470.0
83.464374519,4581.0
83.481085788,4567.0
83.497797057,4483.0
83.514508326,4501.0
83.531219595,4457.0
83.547930864,4651.0
83.564642133,4490.0
83.581353402,4613.0
83.598064671,4543.0
83.614775940,4610.0
83.631487209,4592.0
83.648198478,4569.0
83.664909747,4482.0
83.681621016,4714.0
83.698332285,4582.0
83.715043554,4550.0
83.731754823,4531.0
83.748466092,4613.0
83.765177361,4503.0
83.781888630,4632.0
83.798599899,4531.0
83.815311168,4535.0
83.832022437,4465.0
83.848733706,4479.0
83.865444975,4329.0
83.882156244,4507.0
83.898867513,4567.0
83.915578782,4554.0
83.932290051,4577.0
83.949001320,4401.0
83.965712589,4529.0
83.982423858,4641.0
83.999135127,4623.0
84.015846396,4466.0
84.032557665,4584.0
84.049268934,4602.0
84.065980203,4463.0
84.082691472,4502.0
84.099402741,4551.0
84.116114010,4591.0
84.132825279,4588.0
84.149536548,4681.0
84.166247817,4562.0
84.182959086,4528.0
84.199670355,4558.0
84.216381624,4566.0
84.233092893,4608.0
84.249804162,4493.0
84.266515431,4352.0
84.283226699,4668.0
84.299937968,4538.0
84.316649237,4628.0
84.333360506,4503.0
84.350071775,4428.0
84.366783044,4549.0
84.383494313,4499.0
84.400205582,4499.0
84.416916851,4617.0
84.433628120,4466.0
84.450339389,4540.0
84.467050658,4538.0
84.483761927,4576.0
84.500473196,4571.0
84.517184465,4516.0
84.533895734,4562.0
84.550607003,4658.0
84.567318272,4517.0
84.584029541,4538.0
84.600740810,4469.0
84.617452079,4526.0
84.634163348,4625.0
84.650874617,4488.0
84.667585886,4520.0
84.684297155,4541.0
84.701008424,4629.0
84.717719693,4526.0
84.734430962,4533.0
84.751142231,4505.0
84.767853500,4517.0
84.784564769,4581.0
84.801276038,4566.0
84.817987307,4595.0
84.834698576,4585.0
84.851409845,4479.0
84.868121114,4509.0
84.884832383,4410.0
84.901543652,4620.0
84.918254921,4598.0
84.934966190,4576.0
84.951677459,4550.0
84.968388728,4523.0
84.985099997,4489.0
85.001811266,4540.0
85.018522535,4386.0
85.035233804,4390.0
85.051945073,4390.0
85.068656342,4465.0
85.085367610,4550.0
85.102078879,4616.0
85.118790148,4519.0
85.135501417,4386.0
85.152212686,4629.0
85.168923955,4493.0
85.185635224,4527.0
85.202346493,4531.0
85.219057762,4704.0
85.235769031,4543.0
85.252480300,4599.0
85.269191569,4515.0
85.285902838,4515.0
85.302614107,4572.0
85.319325376,4617.0
85.336036645,4510.0
85.352747914,4605.0
85.369459183,4546.0
85.386170452,4519.0
85.402881721,4601.0
85.419592990,4527.0
85.436304259,4525.0
85.453015528,4588.0
85.469726797,4564.0
85.486438066,4513.0
85.503149335,4485.0
85.519860604,4597.0
85.536571873,4559.0
85.553283142,4480.0
85.569994411,4601.0
85.586705680,4537.0
85.603416949,4511.0
85.620128218,4519.0
85.636839487,4482.0
85.653550756,4501.0
85.670262025,4549.0
85.686973294,4606.0
85.703684563,4437.0
85.720395832,4507.0
85.737107101,4646.0
85.753818370,4489.0
85.770529639,4544.0
85.787240908,4447.0
85.803952177,4707.0
85.820663446,4626.0
85.837374715,4548.0
85.854085984,4721.0
85.870797253,4543.0
85.887508521,4535.0
85.904219790,4613.0
85.920931059,4504.0
85.937642328,4486.0
85.954353597,4649.0
85.971064866,4454.0
85.987776135,4532.0
86.004487404,4677.0
86.021198673,4439.0
86.037909942,4625.0
86.054621211,4536.0
86.071332480,4546.0
86.088043749,4408.0
86.104755018,4583.0
86.121466287,4638.0
86.138177556,4546.0
86.154888825,4570.0
86.171600094,4593.0
86.188311363,4542.0
86.205022632,4657.0
86.221733901,4633.0
86.238445170,4646.0
86.255156439,4576.0
86.271867708,4581.0
86.288578977,4560.0
86.305290246,4600.0
86.322001515,4502.0
86.338712784,4696.0
86.355424053,4532.0
86.372135322,4541.0
86.388846591,4518.0
86.405557860,4500.0
86.422269129,4544.0
86.438980398,4596.0
86.455691667,4594.0
86.472402936,4577.0
86.489114205,4618.0
86.505825474,4670.0
86.522536743,4677.0
86.539248012,4635.0
86.555959281,4633.0
86.572670550,4573.0
86.589381819,4652.0
86.606093088,4550.0
86.622804357,4528.0
86.639515626,4516.0
86.656226895,4665.0
86.672938164,4522.0
86.689649432,4636.0
86.706360701,4631.0
86.723071970,4514.0
86.739783239,4686.0
86.756494508,4548.0
86.773205777,4593.0
86.789917046,4485.0
86.806628315,4479.0
86.823339584,4497.0
86.840050853,4601.0
86.856762122,4464.0
86.873473391,4652.0
86.890184660,4656.0
86.906895929,4571.0
86.923607198,4574.0
86.940318467,4440.0
86.957029736,4469.0
86.973741005,4563.0
86.990452274,4534.0
87.007163543,4578.0
87.023874812,4591.0
87.040586081,4696.0
87.057297350,4465.0
87.074008619,4539.0
87.090719888,4541.0
87.107431157,4715.0
87.124142426,4553.0
87.140853695,4539.0
87.157564964,4629.0
87.174276233,4634.0
87.190987502,4572.0
87.207698771,4585.0
87.224410040,4597.0
87.241121309,4607.0
87.257832578,4523.0
87.274543847,4594.0
87.291255116,4641.0
87.307966385,4549.0
87.324677654,4552.0
87.341388923,4632.0
87.358100192,4639.0
87.374811461,4629.0
87.391522730,4581.0
87.408233999,4527.0
87.424945268,4644.0
87.441656537,4463.0
87.458367806,4464.0
87.475079075,4637.0
87.491790344,4610.0
87.508501612,4577.0
87.525212881,4517.0
87.541924150,4450.0
87.558635419,4623.0
87.575346688,4599.0
87.592057957,4443.0
87.608769226,4591.0
87.625480495,4582.0
87.642191764,4497.0
87.658903033,4603.0
87.675614302,4545.0
87.692325571,4458.0
87.709036840,4538.0
87.725748109,4490.0
87.742459378,4593.0
87.759170647,4642.0
87.775881916,4702.0
87.792593185,4498.0
87.809304454,4667.0
87.826015723,4543.0
87.842726992,4467.0
87.859438261,4697.0
87.876149530,4632.0
87.892860799,4558.0
87.909572068,4566.0
87.926283337,4631.0
87.942994606,4618.0
87.959705875,4614.0
87.976417144,4465.0
87.993128413,4608.0
88.009839682,4545.0
88.026550951,4681.0
88.043262220,4528.0
88.059973489,4620.0
88.076684758,4563.0
88.093396027,4545.0
88.110107296,4479.0
88.126818565,4368.0
88.143529834,4719.0
88.160241103,4538.0
88.176952372,4673.0
88.193663641,4498.0
88.210374910,4517.0
88.227086179,4629.0
88.243797448,4581.0
88.260508717,4689.0
88.277219986,4599.0
88.293931255,4634.0
88.310642523,4525.0
88.327353792,4741.0
88.344065061,4546.0
88.360776330,4747.0
88.377487599,4583.0
88.394198868,4596.0
88.410910137,4597.0
88.427621406,4576.0
88.444332675,4602.0
88.461043944,4643.0
88.477755213,4533.0
88.494466482,4648.0
88.511177751,4616.0
88.527889020,4579.0
88.544600289,4589.0
88.561311558,4509.0
88.578022827,4634.0
88.594734096,4550.0
88.611445365,4685.0
88.628156634,4561.0
88.644867903,4562.0
88.661579172,4603.0
88.678290441,4610.0
88.695001710,4492.0
88.711712979,4636.0
88.728424248,4670.0
88.745135517,4636.0
88.761846786,4601.0
88.778558055,4635.0
88.795269324,4608.0
88.811980593,4518.0
88.828691862,4643.0
88.845403131,4620.0
88.862114400,4524.0
88.878825669,4727.0
88.895536938,4722.0
88.912248207,4740.0
88.928959476,4717.0
88.945670745,4690.0
88.962382014,4711.0
88.979093283,4747.0
88.995804552,4715.0
89.012515821,4715.0
89.029227090,4786.0
89.045938359,4677.0
89.062649628,4914.0
89.079360897,4849.0
89.096072166,4788.0
89.112783434,4954.0
89.129494703,4933.0
89.146205972,5022.0
89.162917241,4878.0
89.179628510,5030.0
89.196339779,4918.0
89.213051048,5130.0
89.229762317,5188.0
89.246473586,5269.0
89.263184855,5412.0
89.279896124,5677.0
89.296607393,5945.0
89.313318662,6290.0
89.330029931,6998.0
89.346741200,7886.0
89.363452469,9197.0
89.380163738,11064.0
89.396875007,13348.0
89.413586276,15530.0
89.430297545,17786.0
89.447008814,18566.0
89.463720083,17126.0
89.480431352,15003.0
89.497142621,12102.0
89.513853890,9980.0
89.530565159,8411.0
89.547276428,7418.0
89.563987697,6934.0
89.580698966,6430.0
89.597410235,6406.0
89.614121504,6571.0
89.630832773,7019.0
89.647544042,7614.0
89.664255311,8269.0
89.680966580,9269.0
89.697677849,10236.0
89.714389118,11208.0
89.731100387,11307.0
89.747811656,10505.0
89.764522925,9529.0
89.781234194,8266.0
89.797945463,7267.0
89.814656732,6563.0
89.831368001,5924.0
89.848079270,5616.0
89.864790539,5388.0
89.881501808,5195.0
89.898213077,5105.0
89.914924345,5083.0
89.931635614,5027.0
89.948346883,4921.0
89.965058152,4873.0
89.981769421,4795.0
89.998480690,4735.0
90.015191959,4831.0
90.031903228,4738.0
90.048614497,4699.0
90.065325766,4744.0
90.082037035,4666.0
90.098748304,4758.0
90.115459573,4549.0
90.132170842,4580.0
90.148882111,4564.0
90.165593380,4673.0
90.182304649,4553.0
90.199015918,4668.0
90.215727187,4514.0
90.232438456,4604.0
90.249149725,4660.0
90.265860994,4688.0
90.282572263,4550.0
90.299283532,4636.0
90.315994801,4569.0
90.332706070,4586.0
90.349417339,4569.0
90.366128608,4578.0
90.382839877,4710.0
90.399551146,4529.0
90.416262415,4615.0
90.432973684,4593.0
90.449684953,4706.0
90.466396222,4620.0
90.483107491,4633.0
90.499818760,4515.0
90.516530029,4535.0
90.533241298,4589.0
90.549952567,4693.0
90.566663836,4648.0
90.583375105,4577.0
90.600086374,4684.0
90.616797643,4713.0
90.633508912,4601.0
90.650220181,4666.0
90.666931450,4544.0
90.683642719,4501.0
90.700353988,4542.0
90.717065257,4670.0
90.733776525,4661.0
90.750487794,4567.0
90.767199063,4633.0
90.783910332,4510.0
90.800621601,4498.0
90.817332870,4575.0
90.834044139,4657.0
90.850755408,4578.0
90.867466677,4704.0
90.884177946,4587.0
90.900889215,4474.0
90.917600484,4678.0
90.934311753,4570.0
90.951023022,4574.0
90.967734291,4638.0
90.984445560,4580.0
91.001156829,4715.0
91.017868098,4626.0
91.034579367,4587.0
91.051290636,4563.0
91.068001905,4505.0
91.084713174,4507.0
91.101424443,4575.0
91.118135712,4520.0
91.134846981,4514.0
91.151558250,4611.0
91.168269519,4522.0
91.184980788,4664.0
91.201692057,4620.0
91.218403326,4526.0
91.235114595,4531.0
91.251825864,4681.0
91.268537133,4526.0
91.285248402,4554.0
91.301959671,4597.0
91.318670940,4439.0
91.335382209,4623.0
91.352093478,4651.0
91.368804747,4548.0
91.385516016,4543.0
91.402227285,4670.0
91.418938554,4554.0
91.435649823,4591.0
91.452361092,4553.0
91.469072361,4617.0
91.485783630,4651.0
91.502494899,4553.0
91.519206168,4596.0
91.535917436,4619.0
91.552628705,4541.0
91.569339974,4546.0
91.586051243,4571.0
91.602762512,4586.0
91.619473781,4537.0
91.636185050,4677.0
91.652896319,4637.0
91.669607588,4599.0
91.686318857,4538.0
91.703030126,4613.0
91.719741395,4456.0
91.736452664,4595.0
91.753163933,4521.0
91.769875202,4515.0
91.786586471,4540.0
91.803297740,4597.0
91.820009009,4697.0
91.836720278,4472.0
91.853431547,4469.0
91.870142816,4580.0
91.886854085,4549.0
91.903565354,4596.0
91.920276623,4557.0
91.936987892,4540.0
91.953699161,4553.0
91.970410430,4546.0
91.987121699,4682.0
92.003832968,4589.0
92.020544237,4597.0
92.037255506,4538.0
92.053966775,4537.0
92.070678044,4666.0
92.087389313,4493.0
92.104100582,4587.0
92.120811851,4742.0
92.137523120,4578.0
92.154234389,4569.0
92.170945658,4817.0
92.187656927,4514.0
92.204368196,4599.0
92.221079465,4613.0
92.237790734,4574.0
92.254502003,4547.0
92.271213272,4637.0
92.287924541,4564.0
92.304635810,4576.0
92.321347079,4575.0
92.338058347,4559.0
92.354769616,4549.0
92.371480885,4429.0
92.388192154,4464.0
92.404903423,4720.0
92.421614692,4635.0
92.438325961,4568.0
92.455037230,4619.0
92.471748499,4639.0
92.488459768,4602.0
92.505171037,4587.0
92.521882306,4598.0
92.538593575,4624.0
92.555304844,4526.0
92.572016113,4536.0
92.588727382,4472.0
92.605438651,4530.0
92.622149920,4672.0
92.638861189,4596.0
92.655572458,4566.0
92.672283727,4575.0
92.688994996,4582.0
92.705706265,4616.0
92.722417534,4672.0
92.739128803,4550.0
92.755840072,4497.0
92.772551341,4480.0
92.789262610,4518.0
92.805973879,4525.0
92.822685148,4592.0
92.839396417,4587.0
92.856107686,4616.0
92.872818955,4600.0
92.889530224,4574.0
92.906241493,4581.0
92.922952762,4651.0
92.939664031,4504.0
92.956375300,4631.0
92.973086569,4604.0
92.989797838,4541.0
93.006509107,4472.0
93.023220376,4594.0
93.039931645,4642.0
93.056642914,4647.0
93.073354183,4488.0
93.090065452,4636.0
93.106776721,4712.0
93.123487990,4480.0
93.140199258,4486.0
93.156910527,4504.0
93.173621796,4663.0
93.190333065,4550.0
93.207044334,4636.0
93.223755603,4668.0
93.240466872,4549.0
93.257178141,4424.0
93.273889410,4408.0
93.290600679,4626.0
93.307311948,4687.0
93.324023217,4608.0
93.340734486,4717.0
93.357445755,4543.0
93.374157024,4599.0
93.390868293,4685.0
93.407579562,4576.0
93.424290831,4705.0
93.441002100,4635.0
93.457713369,4513.0
93.474424638,4530.0
93.491135907,4500.0
93.507847176,4562.0
93.524558445,4599.0
93.541269714,4725.0
93.557980983,4693.0
93.574692252,4623.0
93.591403521,4590.0
93.608114790,4582.0
93.624826059,4589.0
93.641537328,4606.0
93.658248597,4518.0
93.674959866,4574.0
93.691671135,4555.0
93.708382404,4617.0
93.725093673,4628.0
93.741804942,4635.0
93.758516211,4696.0
93.775227480,4592.0
93.791938749,4654.0
93.808650018,4527.0
93.825361287,4693.0
93.842072556,4568.0
93.858783825,4644.0
93.875495094,4642.0
93.892206363,4564.0
93.908917632,4688.0
93.925628901,4707.0
93.942340170,4647.0
93.959051438,4649.0
93.975762707,4783.0
93.992473976,4718.0
94.009185245,4672.0
94.025896514,4666.0
94.042607783,4703.0
94.059319052,4703.0
94.076030321,4779.0
94.092741590,4696.0
94.109452859,4908.0
94.126164128,4689.0
94.142875397,4818.0
94.159586666,4701.0
94.176297935,4876.0
94.193009204,4855.0
94.209720473,4762.0
94.226431742,4722.0
94.243143011,4767.0
94.259854280,4899.0
94.276565549,4914.0
94.293276818,4949.0
94.309988087,4940.0
94.326699356,4992.0
94.343410625,5032.0
94.360121894,5045.0
94.376833163,5273.0
94.393544432,5325.0
94.410255701,5369.0
94.426966970,5559.0
94.443678239,5724.0
94.460389508,5943.0
94.477100777,6369.0
94.493812046,6824.0
94.510523315,7685.0
94.527234584,9212.0
94.543945853,11339.0
94.560657122,14194.0
94.577368391,17575.0
94.594079660,20670.0
94.610790929,21464.0
94.627502198,19952.0
94.644213467,17005.0
94.660924736,13207.0
94.677636005,10486.0
94.694347274,8822.0
94.711058543,7550.0
94.727769812,6886.0
94.744481081,6431.0
94.761192349,6240.0
94.777903618,6249.0
94.794614887,6473.0
94.811326156,6652.0
94.828037425,6989.0
94.844748694,7788.0
94.861459963,8788.0
94.878171232,10507.0
94.894882501,11755.0
94.911593770,12861.0
94.928305039,12682.0
94.945016308,11714.0
94.961727577,9854.0
94.978438846,8475.0
94.995150115,7152.0
95.011861384,6360.0
95.028572653,5952.0
95.045283922,5574.0
95.061995191,5452.0
95.078706460,5303.0
95.095417729,5136.0
95.112128998,4957.0
95.128840267,5041.0
95.145551536,4889.0
95.162262805,4956.0
95.178974074,4860.0
95.195685343,4810.0
95.212396612,4669.0
95.229107881,4723.0
95.245819150,4788.0
95.262530419,4728.0
95.279241688,4692.0
95.295952957,4746.0
95.312664226,4804.0
95.329375495,4553.0
95.346086764,4678.0
95.362798033,4585.0
95.379509302,4578.0
95.396220571,4571.0
95.412931840,4698.0
95.429643109,4703.0
95.446354378,4587.0
95.463065647,4642.0
95.479776916,4686.0
95.496488185,4642.0
95.513199454,4567.0
95.529910723,4575.0
95.546621992,4618.0
95.563333260,4706.0
95.580044529,4484.0
95.596755798,4479.0
95.613467067,4798.0
95.630178336,4640.0
95.646889605,4602.0
95.663600874,4650.0
95.680312143,4652.0
95.697023412,4604.0
95.713734681,4536.0
95.730445950,4612.0
95.747157219,4540.0
95.763868488,4622.0
95.780579757,4672.0
95.797291026,4529.0
95.814002295,4630.0
95.830713564,4481.0
95.847424833,4558.0
95.864136102,4623.0
95.880847371,4559.0
95.897558640,4553.0
95.914269909,4561.0
95.930981178,4664.0
95.947692447,4625.0
95.964403716,4624.0
95.981114985,4522.0
95.997826254,4631.0
96.014537523,4478.0
96.031248792,4648.0
96.047960061,4489.0
96.064671330,4546.0
96.081382599,4722.0
96.098093868,4517.0
96.114805137,4574.0
96.131516406,4517.0
96.148227675,4587.0
96.164938944,4680.0
96.181650213,4561.0
96.198361482,4616.0
96.215072751,4619.0
96.231784020,4570.0
96.248495289,4574.0
96.265206558,4532.0
96.281917827,4619.0
96.298629096,4633.0
96.315340365,4577.0
96.332051634,4549.0
96.348762903,4585.0
96.365474171,4639.0
96.382185440,4592.0
96.398896709,4620.0
96.415607978,4542.0
96.432319247,4665.0
96.449030516,4629.0
96.465741785,4520.0
96.482453054,4645.0
96.499164323,4521.0
96.515875592,4505.0
96.532586861,4433.0
96.549298130,4639.0
96.566009399,4457.0
96.582720668,4518.0
96.599431937,4470.0
96.616143206,4620.0
96.632854475,4494.0
96.649565744,4512.0
96.666277013,4449.0
96.682988282,4470.0
96.699699551,4504.0
96.716410820,4614.0
96.733122089,4631.0
96.749833358,4665.0
96.766544627,4573.0
96.783255896,4478.0
96.799967165,4471.0
96.816678434,4573.0
96.833389703,4456.0
96.850100972,4583.0
96.866812241,4563.0
96.883523510,4543.0
96.900234779,4549.0
96.916946048,4613.0
96.933657317,4490.0
96.950368586,4526.0
96.967079855,4571.0
96.983791124,4542.0
97.000502393,4580.0
97.017213662,4483.0
97.033924931,4490.0
97.050636200,4551.0
97.067347469,4535.0
97.084058738,4463.0
97.100770007,4533.0
97.117481276,4510.0
97.134192545,4584.0
97.150903814,4511.0
97.167615083,4540.0
97.184326351,4507.0
97.201037620,4543.0
97.217748889,4574.0
97.234460158,4435.0
97.251171427,4378.0
97.267882696,4542.0
97.284593965,4404.0
97.301305234,4574.0
97.318016503,4509.0
97.334727772,4414.0
97.351439041,4439.0
97.368150310,4628.0
97.384861579,4519.0
97.401572848,4516.0
97.418284117,4545.0
97.434995386,4422.0
97.451706655,4489.0
97.468417924,4516.0
97.485129193,4554.0
97.501840462,4466.0
97.518551731,4667.0
97.535263000,4436.0
97.551974269,4563.0
97.568685538,4461.0
97.585396807,4516.0
97.602108076,4511.0
97.618819345,4549.0
97.635530614,4577.0
97.652241883,4502.0
97.668953152,4568.0
97.685664421,4587.0
97.702375690,4589.0
97.719086959,4568.0
97.735798228,4658.0
97.752509497,4584.0
97.769220766,4408.0
97.785932035,4592.0
97.802643304,4439.0
97.819354573,4684.0
97.836065842,4557.0
97.852777111,4492.0
97.869488380,4471.0
97.886199649,4434.0
97.902910918,4499.0
97.919622187,4536.0
97.936333456,4550.0
97.953044725,4540.0
97.969755994,4562.0
97.986467262,4513.0
98.003178531,4479.0
98.019889800,4584.0
98.036601069,4433.0
98.053312338,4471.0
98.070023607,4537.0
98.086734876,4543.0
98.103446145,4449.0
98.120157414,4488.0
98.136868683,4526.0
98.153579952,4537.0
98.170291221,4540.0
98.187002490,4492.0
98.203713759,4490.0
98.220425028,4518.0
98.237136297,4500.0
98.253847566,4633.0
98.270558835,4555.0
98.287270104,4440.0
98.303981373,4514.0
98.320692642,4481.0
98.337403911,4444.0
98.354115180,4420.0
98.370826449,4430.0
98.387537718,4455.0
98.404248987,4448.0
98.420960256,4378.0
98.437671525,4455.0
98.454382794,4546.0
98.471094063,4445.0
98.487805332,4502.0
98.504516601,4460.0
98.521227870,4616.0
98.537939139,4570.0
98.554650408,4497.0
98.571361677,4535.0
98.588072946,4415.0
98.604784215,4459.0
98.621495484,4582.0
98.638206753,4447.0
98.654918022,4576.0
98.671629291,4493.0
98.688340560,4584.0
98.705051829,4503.0
98.721763098,4561.0
98.738474367,4530.0
98.755185636,4592.0
98.771896905,4458.0
98.788608173,4498.0
98.805319442,4621.0
98.822030711,4306.0
98.838741980,4462.0
98.855453249,4468.0
98.872164518,4606.0
98.888875787,4548.0
98.905587056,4392.0
98.922298325,4405.0
98.939009594,4613.0
98.955720863,4522.0
98.972432132,4420.0
98.989143401,4606.0
99.005854670,4530.0
99.022565939,4446.0
99.039277208,4490.0
99.055988477,4481.0
99.072699746,4602.0
99.089411015,4570.0
99.106122284,4504.0
99.122833553,4373.0
99.139544822,4558.0
99.156256091,4570.0
99.172967360,4438.0
99.189678629,4419.0
99.206389898,4574.0
99.223101167,4475.0
99.239812436,4659.0
99.256523705,4466.0
99.273234974,4407.0
99.289946243,4448.0
99.306657512,4519.0
99.323368781,4504.0
99.340080050,4400.0
99.356791319,4488.0
99.373502588,4411.0
99.390213857,4424.0
99.406925126,4543.0
99.423636395,4615.0
99.440347664,4543.0
99.457058933,4582.0
99.473770202,4567.0
99.490481471,4450.0
99.507192740,4684.0
99.523904009,4474.0
99.540615278,4494.0
99.557326547,4450.0
99.574037816,4392.0
99.590749084,4533.0
99.607460353,4438.0
99.624171622,4436.0
99.640882891,4484.0
99.657594160,4592.0
99.674305429,4431.0
99.691016698,4521.0
99.707727967,4569.0
99.724439236,4673.0
99.741150505,4381.0
99.757861774,4474.0
99.774573043,4563.0
99.791284312,4446.0
99.807995581,4510.0
99.824706850,4428.0
99.841418119,4470.0
99.858129388,4543.0
99.874840657,4448.0
99.891551926,4456.0
99.908263195,4504.0
99.924974464,4547.0
99.941685733,4539.0
99.958397002,4471.0
99.975108271,4470.0
99.991819540,4469.0
