[Measurement conditions]
Sample identification,
Comment - 1,"finito"
Comment - 2,"Configuration=MRI TC-Basic Stage, Owner=User-1, Creation date=26-10-2009 9:18:44"
Comment - 3,"Goniometer=PW3050/60 (Theta/Theta); Minimum step size 2Theta:0.001; Minimum step size Omega:0.001"
Comment - 4,"Sample stage=MRI TC-Basic (PtRh heat strip)"
Comment - 5,"Diffractometer system=XPERT-PRO"
Comment - 6,"Measurement program=FlatStage, Owner=joana, Creation date=03-08-2011 15:43:53"
Anode material,Cu
K-Alpha1 wavelength,1.5405980
K-Alpha2 wavelength,1.5444260
Ratio K-Alpha2/K-Alpha1,0.500
Divergence slit,Fixed,0.76mm
Monochromator used,NO
Generator voltage, 45
Tube current, 40
File date and time,06/Dec/2012 23:04
Unit cell,
h k l, 0 0 0
Temperature [K],623
Scan axis,Gonio
Scan range,24.999999996,100.000175174
Scan step size,0.0167113
No. of points, 4488
Scan type,CONTINUOUS
Time per step,53.340
[Scan points]
Angle,Intensity
25.008355630,3677.0
25.025066899,3751.0
25.041778168,3827.0
25.058489437,3652.0
25.075200706,3791.0
25.091911975,3763.0
25.108623244,3742.0
25.125334513,3747.0
25.142045782,3726.0
25.158757051,3688.0
25.175468320,3772.0
25.192179589,3825.0
25.208890858,3836.0
25.225602127,3769.0
25.242313396,3782.0
25.259024665,3781.0
25.275735934,3868.0
25.292447203,3826.0
25.309158472,3868.0
25.325869741,3711.0
25.342581010,3728.0
25.359292279,3853.0
25.376003548,3772.0
25.392714817,3828.0
25.409426086,3801.0
25.426137354,3804.0
25.442848623,3754.0
25.459559892,3859.0
25.476271161,3792.0
25.492982430,3616.0
25.509693699,3803.0
25.526404968,3834.0
25.543116237,3789.0
25.559827506,3750.0
25.576538775,3753.0
25.593250044,3789.0
25.609961313,3765.0
25.626672582,3841.0
25.643383851,3722.0
25.660095120,3759.0
25.676806389,3617.0
25.693517658,3968.0
25.710228927,3872.0
25.726940196,3776.0
25.743651465,3685.0
25.760362734,3894.0
25.777074003,3833.0
25.793785272,3846.0
25.810496541,3782.0
25.827207810,3608.0
25.843919079,3870.0
25.860630348,3753.0
25.877341617,3784.0
25.894052886,3837.0
25.910764155,3740.0
25.927475424,3647.0
25.944186693,3747.0
25.960897962,3746.0
25.977609231,3766.0
25.994320500,3724.0
26.011031769,3820.0
26.027743038,3758.0
26.044454307,3745.0
26.061165576,3849.0
26.077876845,3854.0
26.094588114,3755.0
26.111299383,3778.0
26.128010652,3844.0
26.144721921,3788.0
26.161433190,3890.0
26.178144459,3992.0
26.194855728,3822.0
26.211566997,3809.0
26.228278265,3802.0
26.244989534,3841.0
26.261700803,3718.0
26.278412072,3689.0
26.295123341,3802.0
26.311834610,3855.0
26.328545879,3924.0
26.345257148,3818.0
26.361968417,3748.0
26.378679686,3686.0
26.395390955,3835.0
26.412102224,3754.0
26.428813493,3764.0
26.445524762,3822.0
26.462236031,3745.0
26.478947300,3772.0
26.495658569,3733.0
26.512369838,3810.0
26.529081107,3896.0
26.545792376,3741.0
26.562503645,3921.0
26.579214914,3689.0
26.595926183,3881.0
26.612637452,3816.0
26.629348721,3761.0
26.646059990,3809.0
26.662771259,3888.0
26.679482528,3832.0
26.696193797,3883.0
26.712905066,3732.0
26.729616335,3932.0
26.746327604,3766.0
26.763038873,3905.0
26.779750142,3983.0
26.796461411,3717.0
26.813172680,3829.0
26.829883949,3809.0
26.846595218,3817.0
26.863306487,3848.0
26.880017756,3845.0
26.896729025,3732.0
26.913440294,3807.0
26.930151563,3952.0
26.946862832,3895.0
26.963574101,3796.0
26.980285370,3887.0
26.996996639,3858.0
27.013707908,3808.0
27.030419176,3843.0
27.047130445,3850.0
27.063841714,3906.0
27.080552983,3983.0
27.097264252,3779.0
27.113975521,3948.0
27.130686790,3951.0
27.147398059,3972.0
27.164109328,3828.0
27.180820597,3878.0
27.197531866,3823.0
27.214243135,3864.0
27.230954404,3895.0
27.247665673,3729.0
27.264376942,3888.0
27.281088211,3799.0
27.297799480,3815.0
27.314510749,3658.0
27.331222018,3790.0
27.347933287,3973.0
27.364644556,3830.0
27.381355825,3817.0
27.398067094,3908.0
27.414778363,3915.0
27.431489632,3987.0
27.448200901,3837.0
27.464912170,3797.0
27.481623439,3844.0
27.498334708,3875.0
27.515045977,3851.0
27.531757246,3950.0
27.548468515,3900.0
27.565179784,3857.0
27.581891053,3865.0
27.598602322,3853.0
27.615313591,3909.0
27.632024860,3874.0
27.648736129,3966.0
27.665447398,3966.0
27.682158667,3843.0
27.698869936,3848.0
27.715581205,3811.0
27.732292474,3773.0
27.749003743,3865.0
27.765715012,3899.0
27.782426281,3897.0
27.799137550,3929.0
27.815848819,3895.0
27.832560087,3825.0
27.849271356,3955.0
27.865982625,3740.0
27.882693894,3816.0
27.899405163,3754.0
27.916116432,3755.0
27.932827701,3963.0
27.949538970,3827.0
27.966250239,3858.0
27.982961508,3855.0
27.999672777,3858.0
28.016384046,3856.0
28.033095315,3897.0
28.049806584,3936.0
28.066517853,3900.0
28.083229122,3933.0
28.099940391,3810.0
28.116651660,3941.0
28.133362929,3921.0
28.150074198,3836.0
28.166785467,3846.0
28.183496736,3942.0
28.200208005,3836.0
28.216919274,3967.0
28.233630543,3942.0
28.250341812,3958.0
28.267053081,3920.0
28.283764350,4071.0
28.300475619,3987.0
28.317186888,4001.0
28.333898157,3874.0
28.350609426,3919.0
28.367320695,3959.0
28.384031964,4036.0
28.400743233,3789.0
28.417454502,3846.0
28.434165771,3910.0
28.450877040,3888.0
28.467588309,3904.0
28.484299578,4020.0
28.501010847,4018.0
28.517722116,3981.0
28.534433385,3944.0
28.551144654,4003.0
28.567855923,3833.0
28.584567192,4026.0
28.601278461,3870.0
28.617989730,3838.0
28.634700999,3877.0
28.651412267,3947.0
28.668123536,3885.0
28.684834805,3969.0
28.701546074,3998.0
28.718257343,3906.0
28.734968612,3981.0
28.751679881,3909.0
28.768391150,4007.0
28.785102419,3934.0
28.801813688,3845.0
28.818524957,3852.0
28.835236226,3874.0
28.851947495,3868.0
28.868658764,3818.0
28.885370033,3842.0
28.902081302,4048.0
28.918792571,3931.0
28.935503840,3872.0
28.952215109,3894.0
28.968926378,3817.0
28.985637647,3922.0
29.002348916,3958.0
29.019060185,3962.0
29.035771454,3809.0
29.052482723,3945.0
29.069193992,3911.0
29.085905261,3986.0
29.102616530,3945.0
29.119327799,3995.0
29.136039068,3872.0
29.152750337,3979.0
29.169461606,4036.0
29.186172875,3889.0
29.202884144,3966.0
29.219595413,3920.0
29.236306682,3964.0
29.253017951,4047.0
29.269729220,4006.0
29.286440489,3960.0
29.303151758,3886.0
29.319863027,3998.0
29.336574296,3913.0
29.353285565,3970.0
29.369996834,3990.0
29.386708103,4029.0
29.403419372,4000.0
29.420130641,3957.0
29.436841910,4009.0
29.453553178,3893.0
29.470264447,3943.0
29.486975716,3982.0
29.503686985,4008.0
29.520398254,4035.0
29.537109523,3856.0
29.553820792,4035.0
29.570532061,4078.0
29.587243330,3897.0
29.603954599,3932.0
29.620665868,4080.0
29.637377137,3847.0
29.654088406,3964.0
29.670799675,3872.0
29.687510944,4053.0
29.704222213,3976.0
29.720933482,4065.0
29.737644751,3966.0
29.754356020,3900.0
29.771067289,4084.0
29.787778558,3920.0
29.804489827,3966.0
29.821201096,3985.0
29.837912365,3873.0
29.854623634,3891.0
29.871334903,3971.0
29.888046172,4008.0
29.904757441,3860.0
29.921468710,3899.0
29.938179979,4015.0
29.954891248,4003.0
29.971602517,4032.0
29.988313786,3964.0
30.005025055,3895.0
30.021736324,3811.0
30.038447593,4001.0
30.055158862,4054.0
30.071870131,4038.0
30.088581400,3915.0
30.105292669,3881.0
30.122003938,4061.0
30.138715207,3980.0
30.155426476,3954.0
30.172137745,4138.0
30.188849014,4009.0
30.205560283,3952.0
30.222271552,4098.0
30.238982821,3959.0
30.255694089,4125.0
30.272405358,3939.0
30.289116627,3964.0
30.305827896,3999.0
30.322539165,3974.0
30.339250434,4005.0
30.355961703,3981.0
30.372672972,3999.0
30.389384241,3996.0
30.406095510,3976.0
30.422806779,3929.0
30.439518048,3976.0
30.456229317,4015.0
30.472940586,3848.0
30.489651855,3914.0
30.506363124,4092.0
30.523074393,4003.0
30.539785662,4179.0
30.556496931,4009.0
30.573208200,3925.0
30.589919469,4014.0
30.606630738,3927.0
30.623342007,4009.0
30.640053276,4018.0
30.656764545,3908.0
30.673475814,4029.0
30.690187083,3945.0
30.706898352,4050.0
30.723609621,4010.0
30.740320890,3955.0
30.757032159,4007.0
30.773743428,4014.0
30.790454697,4102.0
30.807165966,4053.0
30.823877235,3992.0
30.840588504,4102.0
30.857299773,4088.0
30.874011042,3925.0
30.890722311,3870.0
30.907433580,4014.0
30.924144849,4036.0
30.940856118,4070.0
30.957567387,4040.0
30.974278656,4073.0
30.990989925,4007.0
31.007701194,4008.0
31.024412463,4099.0
31.041123732,4062.0
31.057835000,3966.0
31.074546269,3981.0
31.091257538,3998.0
31.107968807,3959.0
31.124680076,4049.0
31.141391345,4103.0
31.158102614,4068.0
31.174813883,4079.0
31.191525152,4053.0
31.208236421,4008.0
31.224947690,4020.0
31.241658959,4049.0
31.258370228,4057.0
31.275081497,4042.0
31.291792766,4069.0
31.308504035,4100.0
31.325215304,4089.0
31.341926573,3978.0
31.358637842,4055.0
31.375349111,3921.0
31.392060380,3917.0
31.408771649,3892.0
31.425482918,4148.0
31.442194187,4063.0
31.458905456,4045.0
31.475616725,4096.0
31.492327994,3980.0
31.509039263,3941.0
31.525750532,3951.0
31.542461801,4028.0
31.559173070,4060.0
31.575884339,3981.0
31.592595608,3950.0
31.609306877,4021.0
31.626018146,4018.0
31.642729415,4085.0
31.659440684,4007.0
31.676151953,4097.0
31.692863222,3995.0
31.709574491,4014.0
31.726285760,4072.0
31.742997029,4057.0
31.759708298,4083.0
31.776419567,4104.0
31.793130836,3939.0
31.809842105,4016.0
31.826553374,4110.0
31.843264643,4077.0
31.859975912,4046.0
31.876687180,3972.0
31.893398449,3986.0
31.910109718,4093.0
31.926820987,3986.0
31.943532256,4105.0
31.960243525,3994.0
31.976954794,4078.0
31.993666063,4035.0
32.010377332,4119.0
32.027088601,4023.0
32.043799870,3989.0
32.060511139,4025.0
32.077222408,4195.0
32.093933677,4029.0
32.110644946,3999.0
32.127356215,4210.0
32.144067484,4064.0
32.160778753,4117.0
32.177490022,4017.0
32.194201291,4123.0
32.210912560,3810.0
32.227623829,4058.0
32.244335098,3931.0
32.261046367,4016.0
32.277757636,3990.0
32.294468905,3991.0
32.311180174,3954.0
32.327891443,4053.0
32.344602712,4029.0
32.361313981,4127.0
32.378025250,4002.0
32.394736519,4125.0
32.411447788,4033.0
32.428159057,3967.0
32.444870326,4092.0
32.461581595,4022.0
32.478292864,4024.0
32.495004133,4078.0
32.511715402,4060.0
32.528426671,4063.0
32.545137940,4104.0
32.561849209,4039.0
32.578560478,4103.0
32.595271747,3995.0
32.611983016,4027.0
32.628694285,4060.0
32.645405554,4137.0
32.662116823,4031.0
32.678828091,4048.0
32.695539360,4110.0
32.712250629,4122.0
32.728961898,4168.0
32.745673167,4141.0
32.762384436,4072.0
32.779095705,4147.0
32.795806974,4070.0
32.812518243,4212.0
32.829229512,4052.0
32.845940781,4065.0
32.862652050,4069.0
32.879363319,4145.0
32.896074588,4060.0
32.912785857,4015.0
32.929497126,4001.0
32.946208395,3992.0
32.962919664,4001.0
32.979630933,4025.0
32.996342202,3993.0
33.013053471,3991.0
33.029764740,4175.0
33.046476009,4120.0
33.063187278,4109.0
33.079898547,4068.0
33.096609816,4035.0
33.113321085,4125.0
33.130032354,4169.0
33.146743623,4058.0
33.163454892,3992.0
33.180166161,4151.0
33.196877430,4241.0
33.213588699,4172.0
33.230299968,4089.0
33.247011237,4101.0
33.263722506,4109.0
33.280433775,4166.0
33.297145044,4120.0
33.313856313,4046.0
33.330567582,4088.0
33.347278851,4027.0
33.363990120,4053.0
33.380701389,4147.0
33.397412658,4069.0
33.414123927,4239.0
33.430835196,4160.0
33.447546465,4193.0
33.464257734,4052.0
33.480969002,4091.0
33.497680271,4089.0
33.514391540,4163.0
33.531102809,4093.0
33.547814078,4240.0
33.564525347,4161.0
33.581236616,4182.0
33.597947885,4166.0
33.614659154,4204.0
33.631370423,4001.0
33.648081692,4078.0
33.664792961,4108.0
33.681504230,4204.0
33.698215499,4143.0
33.714926768,4060.0
33.731638037,4280.0
33.748349306,4131.0
33.765060575,4093.0
33.781771844,4192.0
33.798483113,4150.0
33.815194382,4045.0
33.831905651,3987.0
33.848616920,4166.0
33.865328189,4142.0
33.882039458,4077.0
33.898750727,3987.0
33.915461996,4095.0
33.932173265,4107.0
33.948884534,4071.0
33.965595803,4082.0
33.982307072,4102.0
33.999018341,4106.0
34.015729610,4197.0
34.032440879,4298.0
34.049152148,4071.0
34.065863417,4188.0
34.082574686,4079.0
34.099285955,4158.0
34.115997224,4254.0
34.132708493,4150.0
34.149419762,4246.0
34.166131031,4163.0
34.182842300,4157.0
34.199553569,4299.0
34.216264838,4193.0
34.232976107,4151.0
34.249687376,4137.0
34.266398645,4092.0
34.283109913,4171.0
34.299821182,4219.0
34.316532451,4206.0
34.333243720,4259.0
34.349954989,4191.0
34.366666258,4173.0
34.383377527,4087.0
34.400088796,3947.0
34.416800065,4076.0
34.433511334,4087.0
34.450222603,4209.0
34.466933872,4178.0
34.483645141,4199.0
34.500356410,4129.0
34.517067679,4214.0
34.533778948,4200.0
34.550490217,4171.0
34.567201486,4241.0
34.583912755,4103.0
34.600624024,4158.0
34.617335293,4192.0
34.634046562,4183.0
34.650757831,4240.0
34.667469100,4267.0
34.684180369,4084.0
34.700891638,4291.0
34.717602907,4263.0
34.734314176,3997.0
34.751025445,4149.0
34.767736714,4185.0
34.784447983,4187.0
34.801159252,4051.0
34.817870521,4172.0
34.834581790,4137.0
34.851293059,4235.0
34.868004328,4204.0
34.884715597,4226.0
34.901426866,4173.0
34.918138135,4191.0
34.934849404,4119.0
34.951560673,4267.0
34.968271942,4153.0
34.984983211,4126.0
35.001694480,4202.0
35.018405749,4182.0
35.035117018,4259.0
35.051828287,4139.0
35.068539556,4229.0
35.085250825,4320.0
35.101962093,4228.0
35.118673362,4302.0
35.135384631,4330.0
35.152095900,4232.0
35.168807169,4241.0
35.185518438,4328.0
35.202229707,4298.0
35.218940976,4331.0
35.235652245,4189.0
35.252363514,4248.0
35.269074783,4187.0
35.285786052,4173.0
35.302497321,4267.0
35.319208590,4275.0
35.335919859,4315.0
35.352631128,4395.0
35.369342397,4323.0
35.386053666,4263.0
35.402764935,4295.0
35.419476204,4404.0
35.436187473,4273.0
35.452898742,4351.0
35.469610011,4406.0
35.486321280,4374.0
35.503032549,4258.0
35.519743818,4413.0
35.536455087,4251.0
35.553166356,4271.0
35.569877625,4412.0
35.586588894,4383.0
35.603300163,4232.0
35.620011432,4208.0
35.636722701,4249.0
35.653433970,4271.0
35.670145239,4250.0
35.686856508,4277.0
35.703567777,4275.0
35.720279046,4343.0
35.736990315,4359.0
35.753701584,4360.0
35.770412853,4290.0
35.787124122,4274.0
35.803835391,4298.0
35.820546660,4304.0
35.837257929,4269.0
35.853969198,4339.0
35.870680467,4352.0
35.887391736,4382.0
35.904103004,4304.0
35.920814273,4235.0
35.937525542,4484.0
35.954236811,4335.0
35.970948080,4403.0
35.987659349,4343.0
36.004370618,4468.0
36.021081887,4602.0
36.037793156,4389.0
36.054504425,4350.0
36.071215694,4575.0
36.087926963,4419.0
36.104638232,4406.0
36.121349501,4480.0
36.138060770,4348.0
36.154772039,4554.0
36.171483308,4521.0
36.188194577,4481.0
36.204905846,4626.0
36.221617115,4475.0
36.238328384,4639.0
36.255039653,4526.0
36.271750922,4672.0
36.288462191,4730.0
36.305173460,4692.0
36.321884729,4667.0
36.338595998,4559.0
36.355307267,4437.0
36.372018536,4598.0
36.388729805,4549.0
36.405441074,4392.0
36.422152343,4599.0
36.438863612,4343.0
36.455574881,4470.0
36.472286150,4404.0
36.488997419,4444.0
36.505708688,4576.0
36.522419957,4406.0
36.539131226,4351.0
36.555842495,4540.0
36.572553764,4451.0
36.589265033,4424.0
36.605976302,4400.0
36.622687571,4443.0
36.639398840,4347.0
36.656110109,4353.0
36.672821378,4394.0
36.689532647,4449.0
36.706243915,4337.0
36.722955184,4408.0
36.739666453,4428.0
36.756377722,4329.0
36.773088991,4372.0
36.789800260,4456.0
36.806511529,4401.0
36.823222798,4275.0
36.839934067,4274.0
36.856645336,4241.0
36.873356605,4305.0
36.890067874,4359.0
36.906779143,4498.0
36.923490412,4461.0
36.940201681,4285.0
36.956912950,4316.0
36.973624219,4287.0
36.990335488,4263.0
37.007046757,4346.0
37.023758026,4315.0
37.040469295,4459.0
37.057180564,4355.0
37.073891833,4221.0
37.090603102,4244.0
37.107314371,4246.0
37.124025640,4358.0
37.140736909,4225.0
37.157448178,4277.0
37.174159447,4293.0
37.190870716,4335.0
37.207581985,4283.0
37.224293254,4437.0
37.241004523,4234.0
37.257715792,4223.0
37.274427061,4389.0
37.291138330,4386.0
37.307849599,4321.0
37.324560868,4293.0
37.341272137,4265.0
37.357983406,4292.0
37.374694675,4323.0
37.391405944,4300.0
37.408117213,4164.0
37.424828482,4378.0
37.441539751,4361.0
37.458251020,4328.0
37.474962289,4362.0
37.491673558,4389.0
37.508384826,4241.0
37.525096095,4326.0
37.541807364,4278.0
37.558518633,4266.0
37.575229902,4250.0
37.591941171,4389.0
37.608652440,4363.0
37.625363709,4404.0
37.642074978,4316.0
37.658786247,4325.0
37.675497516,4342.0
37.692208785,4202.0
37.708920054,4264.0
37.725631323,4394.0
37.742342592,4388.0
37.759053861,4473.0
37.775765130,4290.0
37.792476399,4358.0
37.809187668,4439.0
37.825898937,4192.0
37.842610206,4249.0
37.859321475,4350.0
37.876032744,4338.0
37.892744013,4303.0
37.909455282,4369.0
37.926166551,4487.0
37.942877820,4353.0
37.959589089,4347.0
37.976300358,4414.0
37.993011627,4472.0
38.009722896,4350.0
38.026434165,4460.0
38.043145434,4337.0
38.059856703,4524.0
38.076567972,4378.0
38.093279241,4371.0
38.109990510,4432.0
38.126701779,4276.0
38.143413048,4390.0
38.160124317,4486.0
38.176835586,4531.0
38.193546855,4491.0
38.210258124,4486.0
38.226969393,4379.0
38.243680662,4345.0
38.260391931,4505.0
38.277103200,4452.0
38.293814469,4503.0
38.310525738,4532.0
38.327237006,4494.0
38.343948275,4409.0
38.360659544,4653.0
38.377370813,4463.0
38.394082082,4427.0
38.410793351,4545.0
38.427504620,4444.0
38.444215889,4384.0
38.460927158,4551.0
38.477638427,4604.0
38.494349696,4444.0
38.511060965,4412.0
38.527772234,4561.0
38.544483503,4657.0
38.561194772,4786.0
38.577906041,4638.0
38.594617310,4605.0
38.611328579,4797.0
38.628039848,4863.0
38.644751117,4861.0
38.661462386,4804.0
38.678173655,5027.0
38.694884924,4988.0
38.711596193,4873.0
38.728307462,4852.0
38.745018731,4807.0
38.761730000,4730.0
38.778441269,4524.0
38.795152538,4560.0
38.811863807,4454.0
38.828575076,4536.0
38.845286345,4545.0
38.861997614,4551.0
38.878708883,4533.0
38.895420152,4546.0
38.912131421,4557.0
38.928842690,4379.0
38.945553959,4562.0
38.962265228,4442.0
38.978976497,4547.0
38.995687766,4501.0
39.012399035,4495.0
39.029110304,4573.0
39.045821573,4489.0
39.062532842,4438.0
39.079244111,4369.0
39.095955380,4396.0
39.112666649,4481.0
39.129377917,4399.0
39.146089186,4487.0
39.162800455,4369.0
39.179511724,4472.0
39.196222993,4567.0
39.212934262,4547.0
39.229645531,4558.0
39.246356800,4463.0
39.263068069,4324.0
39.279779338,4592.0
39.296490607,4395.0
39.313201876,4566.0
39.329913145,4519.0
39.346624414,4420.0
39.363335683,4484.0
39.380046952,4374.0
39.396758221,4439.0
39.413469490,4432.0
39.430180759,4446.0
39.446892028,4334.0
39.463603297,4383.0
39.480314566,4411.0
39.497025835,4404.0
39.513737104,4433.0
39.530448373,4360.0
39.547159642,4409.0
39.563870911,4524.0
39.580582180,4526.0
39.597293449,4347.0
39.614004718,4484.0
39.630715987,4505.0
39.647427256,4518.0
39.664138525,4475.0
39.680849794,4432.0
39.697561063,4500.0
39.714272332,4461.0
39.730983601,4593.0
39.747694870,4678.0
39.764406139,4493.0
39.781117408,4555.0
39.797828677,4544.0
39.814539946,4636.0
39.831251215,4565.0
39.847962484,4557.0
39.864673753,4528.0
39.881385022,4565.0
39.898096291,4531.0
39.914807560,4501.0
39.931518828,4564.0
39.948230097,4476.0
39.964941366,4447.0
39.981652635,4452.0
39.998363904,4558.0
40.015075173,4450.0
40.031786442,4481.0
40.048497711,4474.0
40.065208980,4365.0
40.081920249,4548.0
40.098631518,4399.0
40.115342787,4535.0
40.132054056,4415.0
40.148765325,4430.0
40.165476594,4439.0
40.182187863,4465.0
40.198899132,4542.0
40.215610401,4481.0
40.232321670,4427.0
40.249032939,4613.0
40.265744208,4538.0
40.282455477,4554.0
40.299166746,4428.0
40.315878015,4498.0
40.332589284,4375.0
40.349300553,4464.0
40.366011822,4458.0
40.382723091,4417.0
40.399434360,4415.0
40.416145629,4523.0
40.432856898,4501.0
40.449568167,4626.0
40.466279436,4485.0
40.482990705,4453.0
40.499701974,4510.0
40.516413243,4415.0
40.533124512,4537.0
40.549835781,4600.0
40.566547050,4531.0
40.583258319,4652.0
40.599969588,4643.0
40.616680857,4587.0
40.633392126,4516.0
40.650103395,4490.0
40.666814664,4455.0
40.683525933,4447.0
40.700237202,4418.0
40.716948471,4465.0
40.733659739,4615.0
40.750371008,4540.0
40.767082277,4537.0
40.783793546,4469.0
40.800504815,4540.0
40.817216084,4671.0
40.833927353,4593.0
40.850638622,4589.0
40.867349891,4670.0
40.884061160,4604.0
40.900772429,4425.0
40.917483698,4446.0
40.934194967,4427.0
40.950906236,4502.0
40.967617505,4415.0
40.984328774,4497.0
41.001040043,4577.0
41.017751312,4540.0
41.034462581,4574.0
41.051173850,4470.0
41.067885119,4604.0
41.084596388,4570.0
41.101307657,4489.0
41.118018926,4589.0
41.134730195,4482.0
41.151441464,4575.0
41.168152733,4648.0
41.184864002,4637.0
41.201575271,4512.0
41.218286540,4594.0
41.234997809,4579.0
41.251709078,4660.0
41.268420347,4601.0
41.285131616,4637.0
41.301842885,4660.0
41.318554154,4742.0
41.335265423,4786.0
41.351976692,4669.0
41.368687961,4688.0
41.385399230,4697.0
41.402110499,4829.0
41.418821768,4827.0
41.435533037,4876.0
41.452244306,4900.0
41.468955575,5152.0
41.485666844,5098.0
41.502378113,5258.0
41.519089382,5284.0
41.535800651,5159.0
41.552511919,5244.0
41.569223188,5207.0
41.585934457,5240.0
41.602645726,5247.0
41.619356995,5343.0
41.636068264,5316.0
41.652779533,5517.0
41.669490802,5438.0
41.686202071,5344.0
41.702913340,5279.0
41.719624609,5372.0
41.736335878,5328.0
41.753047147,5457.0
41.769758416,5389.0
41.786469685,5482.0
41.803180954,5454.0
41.819892223,5344.0
41.836603492,5318.0
41.853314761,5406.0
41.870026030,5415.0
41.886737299,5439.0
41.903448568,5523.0
41.920159837,5369.0
41.936871106,5439.0
41.953582375,5751.0
41.970293644,5370.0
41.987004913,5527.0
42.003716182,5563.0
42.020427451,5532.0
42.037138720,5560.0
42.053849989,5420.0
42.070561258,5546.0
42.087272527,5697.0
42.103983796,5567.0
42.120695065,5554.0
42.137406334,5703.0
42.154117603,5606.0
42.170828872,5530.0
42.187540141,5652.0
42.204251410,5594.0
42.220962679,5606.0
42.237673948,5570.0
42.254385217,5742.0
42.271096486,5701.0
42.287807755,5621.0
42.304519024,5636.0
42.321230293,5640.0
42.337941562,5737.0
42.354652830,5741.0
42.371364099,5689.0
42.388075368,5695.0
42.404786637,5623.0
42.421497906,5753.0
42.438209175,5679.0
42.454920444,5998.0
42.471631713,5786.0
42.488342982,5975.0
42.505054251,5880.0
42.521765520,6093.0
42.538476789,6118.0
42.555188058,6300.0
42.571899327,6411.0
42.588610596,6645.0
42.605321865,6992.0
42.622033134,6993.0
42.638744403,7447.0
42.655455672,7715.0
42.672166941,8368.0
42.688878210,8768.0
42.705589479,9428.0
42.722300748,10103.0
42.739012017,11076.0
42.755723286,11712.0
42.772434555,12569.0
42.789145824,13690.0
42.805857093,15322.0
42.822568362,17674.0
42.839279631,21563.0
42.855990900,27248.0
42.872702169,38174.0
42.889413438,56539.0
42.906124707,87486.0
42.922835976,126791.0
42.939547245,156867.0
42.956258514,161218.0
42.972969783,152853.0
42.989681052,152422.0
43.006392321,169031.0
43.023103590,201159.0
43.039814859,227854.0
43.056526128,223483.0
43.073237397,181890.0
43.089948666,131575.0
43.106659935,104205.0
43.123371204,99044.0
43.140082473,101486.0
43.156793741,100383.0
43.173505010,86811.0
43.190216279,63095.0
43.206927548,41240.0
43.223638817,29402.0
43.240350086,23818.0
43.257061355,20251.0
43.273772624,18243.0
43.290483893,16260.0
43.307195162,14968.0
43.323906431,13654.0
43.340617700,12648.0
43.357328969,11272.0
43.374040238,10684.0
43.390751507,10113.0
43.407462776,9505.0
43.424174045,9157.0
43.440885314,8982.0
43.457596583,8527.0
43.474307852,8069.0
43.491019121,7909.0
43.507730390,7798.0
43.524441659,7835.0
43.541152928,7358.0
43.557864197,7075.0
43.574575466,7028.0
43.591286735,6890.0
43.607998004,6971.0
43.624709273,6578.0
43.641420542,6851.0
43.658131811,6562.0
43.674843080,6535.0
43.691554349,6308.0
43.708265618,6152.0
43.724976887,6254.0
43.741688156,6209.0
43.758399425,6258.0
43.775110694,6151.0
43.791821963,6213.0
43.808533232,6159.0
43.825244501,6009.0
43.841955770,5993.0
43.858667039,6100.0
43.875378308,5899.0
43.892089577,5940.0
43.908800846,5873.0
43.925512115,6061.0
43.942223384,5786.0
43.958934652,5702.0
43.975645921,5724.0
43.992357190,5828.0
44.009068459,5665.0
44.025779728,5780.0
44.042490997,5654.0
44.059202266,5527.0
44.075913535,5371.0
44.092624804,5541.0
44.109336073,5454.0
44.126047342,5585.0
44.142758611,5588.0
44.159469880,5408.0
44.176181149,5402.0
44.192892418,5381.0
44.209603687,5325.0
44.226314956,5355.0
44.243026225,5311.0
44.259737494,5259.0
44.276448763,5386.0
44.293160032,5280.0
44.309871301,5317.0
44.326582570,5219.0
44.343293839,5295.0
44.360005108,5395.0
44.376716377,5268.0
44.393427646,5331.0
44.410138915,5198.0
44.426850184,5208.0
44.443561453,5156.0
44.460272722,5367.0
44.476983991,5153.0
44.493695260,5288.0
44.510406529,5269.0
44.527117798,5303.0
44.543829067,5192.0
44.560540336,5187.0
44.577251605,5128.0
44.593962874,5214.0
44.610674143,5069.0
44.627385412,5171.0
44.644096681,5125.0
44.660807950,5239.0
44.677519219,5291.0
44.694230488,5228.0
44.710941757,5186.0
44.727653026,5155.0
44.744364295,5151.0
44.761075564,5049.0
44.777786832,5249.0
44.794498101,5191.0
44.811209370,5136.0
44.827920639,5142.0
44.844631908,5112.0
44.861343177,5243.0
44.878054446,5383.0
44.894765715,5322.0
44.911476984,5384.0
44.928188253,5310.0
44.944899522,5482.0
44.961610791,5390.0
44.978322060,5458.0
44.995033329,5452.0
45.011744598,5556.0
45.028455867,5494.0
45.045167136,5195.0
45.061878405,5105.0
45.078589674,5172.0
45.095300943,5187.0
45.112012212,5112.0
45.128723481,5083.0
45.145434750,5052.0
45.162146019,4929.0
45.178857288,5148.0
45.195568557,5034.0
45.212279826,5027.0
45.228991095,5010.0
45.245702364,5133.0
45.262413633,4989.0
45.279124902,5110.0
45.295836171,5042.0
45.312547440,5042.0
45.329258709,5033.0
45.345969978,5011.0
45.362681247,5011.0
45.379392516,5154.0
45.396103785,4963.0
45.412815054,4977.0
45.429526323,4972.0
45.446237592,4942.0
45.462948861,5013.0
45.479660130,4877.0
45.496371399,4949.0
45.513082668,5102.0
45.529793937,5109.0
45.546505206,4987.0
45.563216475,5013.0
45.579927743,5071.0
45.596639012,4967.0
45.613350281,5009.0
45.630061550,4973.0
45.646772819,5131.0
45.663484088,4951.0
45.680195357,4961.0
45.696906626,5086.0
45.713617895,5042.0
45.730329164,4986.0
45.747040433,4957.0
45.763751702,5060.0
45.780462971,4923.0
45.797174240,4995.0
45.813885509,4904.0
45.830596778,5096.0
45.847308047,4950.0
45.864019316,5178.0
45.880730585,5128.0
45.897441854,5025.0
45.914153123,5030.0
45.930864392,4977.0
45.947575661,4993.0
45.964286930,5017.0
45.980998199,5094.0
45.997709468,5136.0
46.014420737,4857.0
46.031132006,5062.0
46.047843275,5016.0
46.064554544,5015.0
46.081265813,5100.0
46.097977082,4891.0
46.114688351,4967.0
46.131399620,4897.0
46.148110889,4957.0
46.164822158,5154.0
46.181533427,5132.0
46.198244696,5009.0
46.214955965,5153.0
46.231667234,5293.0
46.248378503,5413.0
46.265089772,5284.0
46.281801041,5461.0
46.298512310,5737.0
46.315223579,5802.0
46.331934848,5624.0
46.348646117,5435.0
46.365357386,5581.0
46.382068654,5487.0
46.398779923,5454.0
46.415491192,5505.0
46.432202461,5553.0
46.448913730,5555.0
46.465624999,5246.0
46.482336268,5288.0
46.499047537,5243.0
46.515758806,5264.0
46.532470075,5198.0
46.549181344,5130.0
46.565892613,4940.0
46.582603882,5093.0
46.599315151,5052.0
46.616026420,5047.0
46.632737689,5216.0
46.649448958,5077.0
46.666160227,5193.0
46.682871496,5133.0
46.699582765,5109.0
46.716294034,5199.0
46.733005303,5157.0
46.749716572,5315.0
46.766427841,5229.0
46.783139110,5142.0
46.799850379,5091.0
46.816561648,5071.0
46.833272917,5208.0
46.849984186,5098.0
46.866695455,5099.0
46.883406724,4947.0
46.900117993,4875.0
46.916829262,5030.0
46.933540531,5005.0
46.950251800,5162.0
46.966963069,4930.0
46.983674338,4897.0
47.000385607,5069.0
47.017096876,4955.0
47.033808145,5146.0
47.050519414,4908.0
47.067230683,4862.0
47.083941952,5017.0
47.100653221,4934.0
47.117364490,4883.0
47.134075759,4895.0
47.150787028,4869.0
47.167498297,4969.0
47.184209565,4906.0
47.200920834,4910.0
47.217632103,4915.0
47.234343372,4881.0
47.251054641,5046.0
47.267765910,4876.0
47.284477179,4887.0
47.301188448,4871.0
47.317899717,4927.0
47.334610986,4933.0
47.351322255,4885.0
47.368033524,4831.0
47.384744793,4865.0
47.401456062,4812.0
47.418167331,4779.0
47.434878600,4830.0
47.451589869,4863.0
47.468301138,5015.0
47.485012407,4822.0
47.501723676,4997.0
47.518434945,4943.0
47.535146214,4756.0
47.551857483,4764.0
47.568568752,4861.0
47.585280021,4865.0
47.601991290,4863.0
47.618702559,4763.0
47.635413828,4952.0
47.652125097,4826.0
47.668836366,4939.0
47.685547635,4918.0
47.702258904,4870.0
47.718970173,4856.0
47.735681442,4817.0
47.752392711,4837.0
47.769103980,4767.0
47.785815249,4920.0
47.802526518,4868.0
47.819237787,4768.0
47.835949056,4797.0
47.852660325,4963.0
47.869371594,4800.0
47.886082863,4941.0
47.902794132,4849.0
47.919505401,4829.0
47.936216670,4964.0
47.952927939,4871.0
47.969639208,4889.0
47.986350477,4850.0
48.003061745,4871.0
48.019773014,4899.0
48.036484283,4883.0
48.053195552,4815.0
48.069906821,4857.0
48.086618090,4847.0
48.103329359,4987.0
48.120040628,4936.0
48.136751897,4916.0
48.153463166,4951.0
48.170174435,4921.0
48.186885704,5035.0
48.203596973,4986.0
48.220308242,4959.0
48.237019511,5071.0
48.253730780,5017.0
48.270442049,5196.0
48.287153318,5085.0
48.303864587,5264.0
48.320575856,5234.0
48.337287125,5312.0
48.353998394,5424.0
48.370709663,5450.0
48.387420932,5342.0
48.404132201,5365.0
48.420843470,5277.0
48.437554739,5153.0
48.454266008,5196.0
48.470977277,5222.0
48.487688546,5407.0
48.504399815,5296.0
48.521111084,5347.0
48.537822353,5291.0
48.554533622,5161.0
48.571244891,5341.0
48.587956160,5303.0
48.604667429,5362.0
48.621378698,5442.0
48.638089967,5533.0
48.654801236,5373.0
48.671512505,5335.0
48.688223774,5405.0
48.704935043,5359.0
48.721646312,5356.0
48.738357581,5251.0
48.755068850,5328.0
48.771780119,5316.0
48.788491388,5397.0
48.805202656,5423.0
48.821913925,5347.0
48.838625194,5424.0
48.855336463,5326.0
48.872047732,5619.0
48.888759001,5419.0
48.905470270,5415.0
48.922181539,5474.0
48.938892808,5391.0
48.955604077,5417.0
48.972315346,5523.0
48.989026615,5540.0
49.005737884,5340.0
49.022449153,5539.0
49.039160422,5445.0
49.055871691,5427.0
49.072582960,5374.0
49.089294229,5379.0
49.106005498,5512.0
49.122716767,5428.0
49.139428036,5574.0
49.156139305,5527.0
49.172850574,5509.0
49.189561843,5418.0
49.206273112,5571.0
49.222984381,5629.0
49.239695650,5473.0
49.256406919,5491.0
49.273118188,5596.0
49.289829457,5568.0
49.306540726,5572.0
49.323251995,5444.0
49.339963264,5498.0
49.356674533,5485.0
49.373385802,5651.0
49.390097071,5597.0
49.406808340,5674.0
49.423519609,5486.0
49.440230878,5706.0
49.456942147,5742.0
49.473653416,5613.0
49.490364685,5802.0
49.507075954,5877.0
49.523787223,5805.0
49.540498492,5782.0
49.557209761,5903.0
49.573921030,5969.0
49.590632299,6004.0
49.607343567,5944.0
49.624054836,6091.0
49.640766105,6358.0
49.657477374,6308.0
49.674188643,6335.0
49.690899912,6526.0
49.707611181,6910.0
49.724322450,7328.0
49.741033719,7580.0
49.757744988,7950.0
49.774456257,8614.0
49.791167526,9059.0
49.807878795,9666.0
49.824590064,10197.0
49.841301333,10872.0
49.858012602,11783.0
49.874723871,12551.0
49.891435140,13843.0
49.908146409,15410.0
49.924857678,18206.0
49.941568947,22835.0
49.958280216,30925.0
49.974991485,44089.0
49.991702754,64156.0
50.008414023,88274.0
50.025125292,109545.0
50.041836561,124740.0
50.058547830,134849.0
50.075259099,143078.0
50.091970368,154685.0
50.108681637,166698.0
50.125392906,171906.0
50.142104175,160381.0
50.158815444,135835.0
50.175526713,111327.0
50.192237982,95866.0
50.208949251,89664.0
50.225660520,87472.0
50.242371789,87190.0
50.259083058,82142.0
50.275794327,70353.0
50.292505596,51524.0
50.309216865,34698.0
50.325928134,24207.0
50.342639403,18575.0
50.359350672,15025.0
50.376061941,13384.0
50.392773210,11962.0
50.409484478,10780.0
50.426195747,9990.0
50.442907016,9205.0
50.459618285,8997.0
50.476329554,8115.0
50.493040823,7796.0
50.509752092,7525.0
50.526463361,7228.0
50.543174630,7143.0
50.559885899,6995.0
50.576597168,6676.0
50.593308437,6714.0
50.610019706,6620.0
50.626730975,6187.0
50.643442244,6260.0
50.660153513,6121.0
50.676864782,6144.0
50.693576051,6109.0
50.710287320,6087.0
50.726998589,5806.0
50.743709858,5852.0
50.760421127,5820.0
50.777132396,5833.0
50.793843665,5862.0
50.810554934,5720.0
50.827266203,5687.0
50.843977472,5839.0
50.860688741,5705.0
50.877400010,5604.0
50.894111279,5681.0
50.910822548,5625.0
50.927533817,5544.0
50.944245086,5648.0
50.960956355,5565.0
50.977667624,5469.0
50.994378893,5509.0
51.011090162,5504.0
51.027801431,5507.0
51.044512700,5538.0
51.061223969,5384.0
51.077935238,5452.0
51.094646507,5426.0
51.111357776,5361.0
51.128069045,5357.0
51.144780314,5378.0
51.161491583,5333.0
51.178202852,5286.0
51.194914121,5326.0
51.211625390,5222.0
51.228336658,5241.0
51.245047927,5285.0
51.261759196,5207.0
51.278470465,5147.0
51.295181734,5155.0
51.311893003,5085.0
51.328604272,5058.0
51.345315541,5194.0
51.362026810,5042.0
51.378738079,5168.0
51.395449348,5100.0
51.412160617,5035.0
51.428871886,5069.0
51.445583155,5092.0
51.462294424,4994.0
51.479005693,5185.0
51.495716962,5019.0
51.512428231,5132.0
51.529139500,4940.0
51.545850769,4932.0
51.562562038,4990.0
51.579273307,5038.0
51.595984576,5068.0
51.612695845,4914.0
51.629407114,5012.0
51.646118383,5046.0
51.662829652,4997.0
51.679540921,5039.0
51.696252190,4937.0
51.712963459,4862.0
51.729674728,4931.0
51.746385997,4999.0
51.763097266,4928.0
51.779808535,5020.0
51.796519804,4854.0
51.813231073,4876.0
51.829942342,4962.0
51.846653611,4922.0
51.863364880,5045.0
51.880076149,5012.0
51.896787418,5068.0
51.913498687,4977.0
51.930209956,4799.0
51.946921225,4914.0
51.963632494,4975.0
51.980343763,5015.0
51.997055032,5018.0
52.013766301,5075.0
52.030477569,4819.0
52.047188838,4953.0
52.063900107,4942.0
52.080611376,4824.0
52.097322645,4874.0
52.114033914,4890.0
52.130745183,4915.0
52.147456452,5018.0
52.164167721,4948.0
52.180878990,4847.0
52.197590259,4919.0
52.214301528,4798.0
52.231012797,4922.0
52.247724066,4893.0
52.264435335,4961.0
52.281146604,4846.0
52.297857873,4892.0
52.314569142,4822.0
52.331280411,4953.0
52.347991680,4888.0
52.364702949,5017.0
52.381414218,4802.0
52.398125487,4745.0
52.414836756,4856.0
52.431548025,4880.0
52.448259294,4860.0
52.464970563,4778.0
52.481681832,4872.0
52.498393101,4894.0
52.515104370,4893.0
52.531815639,5043.0
52.548526908,4736.0
52.565238177,4811.0
52.581949446,4747.0
52.598660715,4933.0
52.615371984,4840.0
52.632083253,4789.0
52.648794522,4832.0
52.665505791,4721.0
52.682217060,4789.0
52.698928329,4819.0
52.715639598,4798.0
52.732350867,4869.0
52.749062136,5010.0
52.765773405,4887.0
52.782484674,4727.0
52.799195943,4842.0
52.815907212,4835.0
52.832618480,4827.0
52.849329749,4754.0
52.866041018,4869.0
52.882752287,4896.0
52.899463556,4715.0
52.916174825,4893.0
52.932886094,4785.0
52.949597363,4934.0
52.966308632,4837.0
52.983019901,4703.0
52.999731170,4722.0
53.016442439,4730.0
53.033153708,4769.0
53.049864977,4790.0
53.066576246,4846.0
53.083287515,4716.0
53.099998784,4829.0
53.116710053,4743.0
53.133421322,4767.0
53.150132591,4727.0
53.166843860,4901.0
53.183555129,4795.0
53.200266398,4772.0
53.216977667,4825.0
53.233688936,4854.0
53.250400205,4756.0
53.267111474,4770.0
53.283822743,4647.0
53.300534012,4728.0
53.317245281,4694.0
53.333956550,4676.0
53.350667819,4742.0
53.367379088,4720.0
53.384090357,4686.0
53.400801626,4752.0
53.417512895,4718.0
53.434224164,4770.0
53.450935433,4857.0
53.467646702,4780.0
53.484357971,4787.0
53.501069240,4663.0
53.517780509,4681.0
53.534491778,4704.0
53.551203047,4786.0
53.567914316,4753.0
53.584625585,4716.0
53.601336854,4769.0
53.618048123,4803.0
53.634759391,4659.0
53.651470660,4743.0
53.668181929,4761.0
53.684893198,4721.0
53.701604467,4625.0
53.718315736,4723.0
53.735027005,4666.0
53.751738274,4547.0
53.768449543,4791.0
53.785160812,4757.0
53.801872081,4714.0
53.818583350,4767.0
53.835294619,4686.0
53.852005888,4753.0
53.868717157,4704.0
53.885428426,4726.0
53.902139695,4723.0
53.918850964,4763.0
53.935562233,4640.0
53.952273502,4641.0
53.968984771,4734.0
53.985696040,4729.0
54.002407309,4808.0
54.019118578,4796.0
54.035829847,4864.0
54.052541116,4690.0
54.069252385,4747.0
54.085963654,4690.0
54.102674923,4763.0
54.119386192,4837.0
54.136097461,4845.0
54.152808730,4702.0
54.169519999,4797.0
54.186231268,4541.0
54.202942537,4818.0
54.219653806,4738.0
54.236365075,4913.0
54.253076344,4665.0
54.269787613,4780.0
54.286498882,4686.0
54.303210151,4704.0
54.319921420,4727.0
54.336632689,4604.0
54.353343958,4598.0
54.370055227,4817.0
54.386766496,4727.0
54.403477765,4788.0
54.420189034,4907.0
54.436900303,4911.0
54.453611571,4955.0
54.470322840,5010.0
54.487034109,4959.0
54.503745378,4941.0
54.520456647,4885.0
54.537167916,4847.0
54.553879185,4778.0
54.570590454,4950.0
54.587301723,4698.0
54.604012992,4839.0
54.620724261,4788.0
54.637435530,4694.0
54.654146799,4779.0
54.670858068,4759.0
54.687569337,4772.0
54.704280606,4695.0
54.720991875,4825.0
54.737703144,4563.0
54.754414413,4563.0
54.771125682,4822.0
54.787836951,4758.0
54.804548220,4708.0
54.821259489,4685.0
54.837970758,4728.0
54.854682027,4789.0
54.871393296,4705.0
54.888104565,4626.0
54.904815834,4636.0
54.921527103,4760.0
54.938238372,4622.0
54.954949641,4626.0
54.971660910,4652.0
54.988372179,4708.0
55.005083448,4617.0
55.021794717,4729.0
55.038505986,4618.0
55.055217255,4683.0
55.071928524,4664.0
55.088639793,4730.0
55.105351062,4651.0
55.122062331,4580.0
55.138773600,4618.0
55.155484869,4688.0
55.172196138,4674.0
55.188907407,4642.0
55.205618676,4590.0
55.222329945,4696.0
55.239041214,4599.0
55.255752482,4669.0
55.272463751,4516.0
55.289175020,4647.0
55.305886289,4564.0
55.322597558,4804.0
55.339308827,4685.0
55.356020096,4491.0
55.372731365,4526.0
55.389442634,4562.0
55.406153903,4657.0
55.422865172,4681.0
55.439576441,4667.0
55.456287710,4583.0
55.472998979,4595.0
55.489710248,4641.0
55.506421517,4651.0
55.523132786,4640.0
55.539844055,4543.0
55.556555324,4457.0
55.573266593,4614.0
55.589977862,4512.0
55.606689131,4542.0
55.623400400,4600.0
55.640111669,4415.0
55.656822938,4623.0
55.673534207,4557.0
55.690245476,4560.0
55.706956745,4600.0
55.723668014,4714.0
55.740379283,4622.0
55.757090552,4408.0
55.773801821,4653.0
55.790513090,4596.0
55.807224359,4677.0
55.823935628,4527.0
55.840646897,4648.0
55.857358166,4529.0
55.874069435,4614.0
55.890780704,4547.0
55.907491973,4484.0
55.924203242,4525.0
55.940914511,4574.0
55.957625780,4559.0
55.974337049,4647.0
55.991048318,4588.0
56.007759587,4465.0
56.024470856,4532.0
56.041182125,4634.0
56.057893393,4603.0
56.074604662,4544.0
56.091315931,4474.0
56.108027200,4563.0
56.124738469,4651.0
56.141449738,4567.0
56.158161007,4542.0
56.174872276,4614.0
56.191583545,4489.0
56.208294814,4480.0
56.225006083,4555.0
56.241717352,4541.0
56.258428621,4608.0
56.275139890,4662.0
56.291851159,4648.0
56.308562428,4566.0
56.325273697,4610.0
56.341984966,4527.0
56.358696235,4440.0
56.375407504,4439.0
56.392118773,4634.0
56.408830042,4581.0
56.425541311,4536.0
56.442252580,4536.0
56.458963849,4604.0
56.475675118,4561.0
56.492386387,4503.0
56.509097656,4627.0
56.525808925,4592.0
56.542520194,4642.0
56.559231463,4686.0
56.575942732,4583.0
56.592654001,4530.0
56.609365270,4504.0
56.626076539,4603.0
56.642787808,4740.0
56.659499077,4431.0
56.676210346,4552.0
56.692921615,4518.0
56.709632884,4507.0
56.726344153,4538.0
56.743055422,4620.0
56.759766691,4631.0
56.776477960,4530.0
56.793189229,4558.0
56.809900498,4536.0
56.826611767,4490.0
56.843323036,4568.0
56.860034304,4562.0
56.876745573,4487.0
56.893456842,4566.0
56.910168111,4585.0
56.926879380,4545.0
56.943590649,4546.0
56.960301918,4602.0
56.977013187,4559.0
56.993724456,4630.0
57.010435725,4332.0
57.027146994,4652.0
57.043858263,4562.0
57.060569532,4494.0
57.077280801,4524.0
57.093992070,4522.0
57.110703339,4546.0
57.127414608,4477.0
57.144125877,4557.0
57.160837146,4531.0
57.177548415,4600.0
57.194259684,4502.0
57.210970953,4503.0
57.227682222,4557.0
57.244393491,4516.0
57.261104760,4429.0
57.277816029,4316.0
57.294527298,4538.0
57.311238567,4562.0
57.327949836,4597.0
57.344661105,4596.0
57.361372374,4584.0
57.378083643,4621.0
57.394794912,4633.0
57.411506181,4542.0
57.428217450,4574.0
57.444928719,4538.0
57.461639988,4597.0
57.478351257,4540.0
57.495062526,4619.0
57.511773795,4484.0
57.528485064,4526.0
57.545196333,4606.0
57.561907602,4491.0
57.578618871,4411.0
57.595330140,4591.0
57.612041409,4521.0
57.628752678,4413.0
57.645463947,4471.0
57.662175216,4519.0
57.678886484,4441.0
57.695597753,4639.0
57.712309022,4600.0
57.729020291,4666.0
57.745731560,4519.0
57.762442829,4503.0
57.779154098,4499.0
57.795865367,4591.0
57.812576636,4570.0
57.829287905,4581.0
57.845999174,4606.0
57.862710443,4431.0
57.879421712,4673.0
57.896132981,4452.0
57.912844250,4387.0
57.929555519,4489.0
57.946266788,4490.0
57.962978057,4500.0
57.979689326,4513.0
57.996400595,4553.0
58.013111864,4585.0
58.029823133,4464.0
58.046534402,4468.0
58.063245671,4527.0
58.079956940,4601.0
58.096668209,4409.0
58.113379478,4555.0
58.130090747,4468.0
58.146802016,4614.0
58.163513285,4469.0
58.180224554,4785.0
58.196935823,4459.0
58.213647092,4463.0
58.230358361,4555.0
58.247069630,4439.0
58.263780899,4455.0
58.280492168,4564.0
58.297203437,4402.0
58.313914706,4510.0
58.330625975,4461.0
58.347337244,4440.0
58.364048513,4531.0
58.380759782,4405.0
58.397471051,4611.0
58.414182320,4574.0
58.430893589,4511.0
58.447604858,4555.0
58.464316127,4575.0
58.481027395,4600.0
58.497738664,4471.0
58.514449933,4418.0
58.531161202,4549.0
58.547872471,4435.0
58.564583740,4504.0
58.581295009,4626.0
58.598006278,4463.0
58.614717547,4467.0
58.631428816,4511.0
58.648140085,4579.0
58.664851354,4518.0
58.681562623,4526.0
58.698273892,4479.0
58.714985161,4652.0
58.731696430,4548.0
58.748407699,4517.0
58.765118968,4547.0
58.781830237,4473.0
58.798541506,4440.0
58.815252775,4409.0
58.831964044,4454.0
58.848675313,4585.0
58.865386582,4403.0
58.882097851,4561.0
58.898809120,4478.0
58.915520389,4500.0
58.932231658,4375.0
58.948942927,4611.0
58.965654196,4399.0
58.982365465,4499.0
58.999076734,4392.0
59.015788003,4543.0
59.032499272,4495.0
59.049210541,4557.0
59.065921810,4473.0
59.082633079,4522.0
59.099344348,4522.0
59.116055617,4598.0
59.132766886,4443.0
59.149478155,4527.0
59.166189424,4479.0
59.182900693,4472.0
59.199611962,4563.0
59.216323231,4428.0
59.233034500,4487.0
59.249745769,4610.0
59.266457038,4413.0
59.283168306,4421.0
59.299879575,4426.0
59.316590844,4410.0
59.333302113,4437.0
59.350013382,4479.0
59.366724651,4388.0
59.383435920,4429.0
59.400147189,4499.0
59.416858458,4443.0
59.433569727,4579.0
59.450280996,4482.0
59.466992265,4472.0
59.483703534,4566.0
59.500414803,4369.0
59.517126072,4623.0
59.533837341,4416.0
59.550548610,4423.0
59.567259879,4508.0
59.583971148,4574.0
59.600682417,4534.0
59.617393686,4373.0
59.634104955,4499.0
59.650816224,4476.0
59.667527493,4567.0
59.684238762,4401.0
59.700950031,4575.0
59.717661300,4638.0
59.734372569,4467.0
59.751083838,4496.0
59.767795107,4482.0
59.784506376,4497.0
59.801217645,4451.0
59.817928914,4379.0
59.834640183,4473.0
59.851351452,4542.0
59.868062721,4461.0
59.884773990,4566.0
59.901485259,4555.0
59.918196528,4426.0
59.934907797,4443.0
59.951619066,4483.0
59.968330335,4522.0
59.985041604,4630.0
60.001752873,4452.0
60.018464142,4466.0
60.035175411,4502.0
60.051886680,4476.0
60.068597949,4524.0
60.085309217,4506.0
60.102020486,4538.0
60.118731755,4417.0
60.135443024,4464.0
60.152154293,4516.0
60.168865562,4402.0
60.185576831,4450.0
60.202288100,4404.0
60.218999369,4497.0
60.235710638,4390.0
60.252421907,4473.0
60.269133176,4501.0
60.285844445,4503.0
60.302555714,4595.0
60.319266983,4472.0
60.335978252,4430.0
60.352689521,4479.0
60.369400790,4489.0
60.386112059,4394.0
60.402823328,4467.0
60.419534597,4471.0
60.436245866,4440.0
60.452957135,4517.0
60.469668404,4462.0
60.486379673,4466.0
60.503090942,4428.0
60.519802211,4564.0
60.536513480,4578.0
60.553224749,4580.0
60.569936018,4429.0
60.586647287,4481.0
60.603358556,4541.0
60.620069825,4484.0
60.636781094,4432.0
60.653492363,4451.0
60.670203632,4466.0
60.686914901,4400.0
60.703626170,4453.0
60.720337439,4449.0
60.737048708,4457.0
60.753759977,4421.0
60.770471246,4484.0
60.787182515,4493.0
60.803893784,4642.0
60.820605053,4529.0
60.837316322,4532.0
60.854027591,4575.0
60.870738860,4477.0
60.887450129,4475.0
60.904161397,4419.0
60.920872666,4529.0
60.937583935,4502.0
60.954295204,4602.0
60.971006473,4547.0
60.987717742,4551.0
61.004429011,4445.0
61.021140280,4488.0
61.037851549,4532.0
61.054562818,4629.0
61.071274087,4413.0
61.087985356,4532.0
61.104696625,4509.0
61.121407894,4538.0
61.138119163,4587.0
61.154830432,4524.0
61.171541701,4399.0
61.188252970,4552.0
61.204964239,4453.0
61.221675508,4492.0
61.238386777,4494.0
61.255098046,4333.0
61.271809315,4415.0
61.288520584,4586.0
61.305231853,4579.0
61.321943122,4400.0
61.338654391,4417.0
61.355365660,4545.0
61.372076929,4447.0
61.388788198,4560.0
61.405499467,4505.0
61.422210736,4423.0
61.438922005,4572.0
61.455633274,4420.0
61.472344543,4530.0
61.489055812,4530.0
61.505767081,4578.0
61.522478350,4542.0
61.539189619,4522.0
61.555900888,4523.0
61.572612157,4493.0
61.589323426,4402.0
61.606034695,4530.0
61.622745964,4479.0
61.639457233,4587.0
61.656168502,4533.0
61.672879771,4385.0
61.689591040,4474.0
61.706302308,4407.0
61.723013577,4516.0
61.739724846,4473.0
61.756436115,4462.0
61.773147384,4428.0
61.789858653,4450.0
61.806569922,4528.0
61.823281191,4279.0
61.839992460,4463.0
61.856703729,4453.0
61.873414998,4401.0
61.890126267,4510.0
61.906837536,4381.0
61.923548805,4506.0
61.940260074,4307.0
61.956971343,4456.0
61.973682612,4538.0
61.990393881,4376.0
62.007105150,4462.0
62.023816419,4442.0
62.040527688,4400.0
62.057238957,4636.0
62.073950226,4324.0
62.090661495,4410.0
62.107372764,4421.0
62.124084033,4501.0
62.140795302,4604.0
62.157506571,4571.0
62.174217840,4516.0
62.190929109,4426.0
62.207640378,4494.0
62.224351647,4466.0
62.241062916,4490.0
62.257774185,4419.0
62.274485454,4419.0
62.291196723,4347.0
62.307907992,4440.0
62.324619261,4543.0
62.341330530,4443.0
62.358041799,4436.0
62.374753068,4503.0
62.391464337,4524.0
62.408175606,4552.0
62.424886875,4490.0
62.441598144,4421.0
62.458309413,4410.0
62.475020682,4536.0
62.491731951,4485.0
62.508443219,4478.0
62.525154488,4500.0
62.541865757,4514.0
62.558577026,4458.0
62.575288295,4401.0
62.591999564,4534.0
62.608710833,4397.0
62.625422102,4445.0
62.642133371,4431.0
62.658844640,4281.0
62.675555909,4559.0
62.692267178,4443.0
62.708978447,4449.0
62.725689716,4397.0
62.742400985,4479.0
62.759112254,4531.0
62.775823523,4331.0
62.792534792,4445.0
62.809246061,4334.0
62.825957330,4483.0
62.842668599,4530.0
62.859379868,4444.0
62.876091137,4363.0
62.892802406,4467.0
62.909513675,4497.0
62.926224944,4453.0
62.942936213,4509.0
62.959647482,4523.0
62.976358751,4441.0
62.993070020,4470.0
63.009781289,4471.0
63.026492558,4457.0
63.043203827,4479.0
63.059915096,4548.0
63.076626365,4439.0
63.093337634,4517.0
63.110048903,4472.0
63.126760172,4492.0
63.143471441,4372.0
63.160182710,4351.0
63.176893979,4530.0
63.193605248,4435.0
63.210316517,4437.0
63.227027786,4508.0
63.243739055,4424.0
63.260450324,4436.0
63.277161593,4461.0
63.293872862,4474.0
63.310584130,4498.0
63.327295399,4469.0
63.344006668,4442.0
63.360717937,4529.0
63.377429206,4349.0
63.394140475,4443.0
63.410851744,4402.0
63.427563013,4411.0
63.444274282,4505.0
63.460985551,4567.0
63.477696820,4470.0
63.494408089,4560.0
63.511119358,4460.0
63.527830627,4444.0
63.544541896,4488.0
63.561253165,4384.0
63.577964434,4458.0
63.594675703,4430.0
63.611386972,4396.0
63.628098241,4551.0
63.644809510,4405.0
63.661520779,4535.0
63.678232048,4398.0
63.694943317,4440.0
63.711654586,4540.0
63.728365855,4446.0
63.745077124,4594.0
63.761788393,4511.0
63.778499662,4420.0
63.795210931,4422.0
63.811922200,4499.0
63.828633469,4369.0
63.845344738,4446.0
63.862056007,4339.0
63.878767276,4367.0
63.895478545,4332.0
63.912189814,4539.0
63.928901083,4420.0
63.945612352,4477.0
63.962323621,4510.0
63.979034890,4489.0
63.995746159,4416.0
64.012457428,4445.0
64.029168697,4462.0
64.045879966,4248.0
64.062591235,4440.0
64.079302504,4523.0
64.096013773,4676.0
64.112725041,4346.0
64.129436310,4417.0
64.146147579,4460.0
64.162858848,4378.0
64.179570117,4519.0
64.196281386,4475.0
64.212992655,4391.0
64.229703924,4419.0
64.246415193,4548.0
64.263126462,4468.0
64.279837731,4518.0
64.296549000,4399.0
64.313260269,4523.0
64.329971538,4419.0
64.346682807,4371.0
64.363394076,4540.0
64.380105345,4504.0
64.396816614,4343.0
64.413527883,4515.0
64.430239152,4425.0
64.446950421,4377.0
64.463661690,4533.0
64.480372959,4629.0
64.497084228,4494.0
64.513795497,4428.0
64.530506766,4412.0
64.547218035,4441.0
64.563929304,4426.0
64.580640573,4487.0
64.597351842,4484.0
64.614063111,4510.0
64.630774380,4356.0
64.647485649,4533.0
64.664196918,4481.0
64.680908187,4400.0
64.697619456,4385.0
64.714330725,4467.0
64.731041994,4317.0
64.747753263,4472.0
64.764464532,4386.0
64.781175801,4379.0
64.797887070,4279.0
64.814598339,4495.0
64.831309608,4319.0
64.848020877,4501.0
64.864732146,4352.0
64.881443415,4487.0
64.898154684,4444.0
64.914865953,4476.0
64.931577221,4383.0
64.948288490,4395.0
64.964999759,4380.0
64.981711028,4379.0
64.998422297,4469.0
65.015133566,4556.0
65.031844835,4439.0
65.048556104,4430.0
65.065267373,4374.0
65.081978642,4624.0
65.098689911,4554.0
65.115401180,4411.0
65.132112449,4557.0
65.148823718,4462.0
65.165534987,4421.0
65.182246256,4448.0
65.198957525,4490.0
65.215668794,4464.0
65.232380063,4510.0
65.249091332,4416.0
65.265802601,4254.0
65.282513870,4492.0
65.299225139,4381.0
65.315936408,4428.0
65.332647677,4377.0
65.349358946,4457.0
65.366070215,4386.0
65.382781484,4463.0
65.399492753,4501.0
65.416204022,4458.0
65.432915291,4502.0
65.449626560,4497.0
65.466337829,4517.0
65.483049098,4573.0
65.499760367,4476.0
65.516471636,4475.0
65.533182905,4526.0
65.549894174,4488.0
65.566605443,4454.0
65.583316712,4506.0
65.600027981,4440.0
65.616739250,4426.0
65.633450519,4528.0
65.650161788,4438.0
65.666873057,4438.0
65.683584326,4492.0
65.700295595,4441.0
65.717006864,4484.0
65.733718132,4456.0
65.750429401,4466.0
65.767140670,4569.0
65.783851939,4410.0
65.800563208,4312.0
65.817274477,4513.0
65.833985746,4458.0
65.850697015,4538.0
65.867408284,4528.0
65.884119553,4359.0
65.900830822,4543.0
65.917542091,4400.0
65.934253360,4526.0
65.950964629,4483.0
65.967675898,4496.0
65.984387167,4382.0
66.001098436,4400.0
66.017809705,4487.0
66.034520974,4462.0
66.051232243,4458.0
66.067943512,4507.0
66.084654781,4454.0
66.101366050,4470.0
66.118077319,4535.0
66.134788588,4572.0
66.151499857,4400.0
66.168211126,4494.0
66.184922395,4387.0
66.201633664,4538.0
66.218344933,4414.0
66.235056202,4562.0
66.251767471,4452.0
66.268478740,4424.0
66.285190009,4491.0
66.301901278,4544.0
66.318612547,4377.0
66.335323816,4429.0
66.352035085,4385.0
66.368746354,4473.0
66.385457623,4602.0
66.402168892,4513.0
66.418880161,4477.0
66.435591430,4366.0
66.452302699,4571.0
66.469013968,4567.0
66.485725237,4425.0
66.502436506,4448.0
66.519147775,4402.0
66.535859043,4446.0
66.552570312,4526.0
66.569281581,4266.0
66.585992850,4452.0
66.602704119,4491.0
66.619415388,4544.0
66.636126657,4488.0
66.652837926,4397.0
66.669549195,4379.0
66.686260464,4516.0
66.702971733,4421.0
66.719683002,4553.0
66.736394271,4448.0
66.753105540,4506.0
66.769816809,4473.0
66.786528078,4487.0
66.803239347,4560.0
66.819950616,4414.0
66.836661885,4481.0
66.853373154,4446.0
66.870084423,4454.0
66.886795692,4397.0
66.903506961,4507.0
66.920218230,4404.0
66.936929499,4423.0
66.953640768,4467.0
66.970352037,4336.0
66.987063306,4473.0
67.003774575,4514.0
67.020485844,4457.0
67.037197113,4414.0
67.053908382,4434.0
67.070619651,4611.0
67.087330920,4421.0
67.104042189,4474.0
67.120753458,4417.0
67.137464727,4470.0
67.154175996,4399.0
67.170887265,4393.0
67.187598534,4453.0
67.204309803,4505.0
67.221021072,4488.0
67.237732341,4440.0
67.254443610,4426.0
67.271154879,4543.0
67.287866148,4590.0
67.304577417,4482.0
67.321288686,4513.0
67.337999954,4452.0
67.354711223,4371.0
67.371422492,4540.0
67.388133761,4468.0
67.404845030,4422.0
67.421556299,4553.0
67.438267568,4436.0
67.454978837,4442.0
67.471690106,4481.0
67.488401375,4524.0
67.505112644,4550.0
67.521823913,4327.0
67.538535182,4541.0
67.555246451,4416.0
67.571957720,4444.0
67.588668989,4485.0
67.605380258,4630.0
67.622091527,4470.0
67.638802796,4360.0
67.655514065,4589.0
67.672225334,4537.0
67.688936603,4597.0
67.705647872,4571.0
67.722359141,4594.0
67.739070410,4685.0
67.755781679,4623.0
67.772492948,4618.0
67.789204217,4841.0
67.805915486,4893.0
67.822626755,4841.0
67.839338024,4655.0
67.856049293,4631.0
67.872760562,4609.0
67.889471831,4541.0
67.906183100,4514.0
67.922894369,4420.0
67.939605638,4586.0
67.956316907,4636.0
67.973028176,4641.0
67.989739445,4549.0
68.006450714,4644.0
68.023161983,4536.0
68.039873252,4472.0
68.056584521,4536.0
68.073295790,4568.0
68.090007059,4454.0
68.106718328,4491.0
68.123429597,4640.0
68.140140866,4482.0
68.156852134,4317.0
68.173563403,4548.0
68.190274672,4371.0
68.206985941,4463.0
68.223697210,4572.0
68.240408479,4447.0
68.257119748,4483.0
68.273831017,4416.0
68.290542286,4547.0
68.307253555,4403.0
68.323964824,4395.0
68.340676093,4546.0
68.357387362,4506.0
68.374098631,4348.0
68.390809900,4488.0
68.407521169,4501.0
68.424232438,4401.0
68.440943707,4421.0
68.457654976,4616.0
68.474366245,4575.0
68.491077514,4344.0
68.507788783,4536.0
68.524500052,4572.0
68.541211321,4382.0
68.557922590,4422.0
68.574633859,4433.0
68.591345128,4538.0
68.608056397,4477.0
68.624767666,4499.0
68.641478935,4414.0
68.658190204,4349.0
68.674901473,4477.0
68.691612742,4480.0
68.708324011,4486.0
68.725035280,4432.0
68.741746549,4601.0
68.758457818,4500.0
68.775169087,4441.0
68.791880356,4431.0
68.808591625,4429.0
68.825302894,4508.0
68.842014163,4404.0
68.858725432,4429.0
68.875436701,4575.0
68.892147970,4362.0
68.908859239,4571.0
68.925570508,4526.0
68.942281777,4534.0
68.958993045,4541.0
68.975704314,4550.0
68.992415583,4384.0
69.009126852,4337.0
69.025838121,4420.0
69.042549390,4409.0
69.059260659,4504.0
69.075971928,4625.0
69.092683197,4599.0
69.109394466,4520.0
69.126105735,4419.0
69.142817004,4366.0
69.159528273,4479.0
69.176239542,4410.0
69.192950811,4495.0
69.209662080,4445.0
69.226373349,4458.0
69.243084618,4470.0
69.259795887,4485.0
69.276507156,4511.0
69.293218425,4540.0
69.309929694,4437.0
69.326640963,4526.0
69.343352232,4425.0
69.360063501,4376.0
69.376774770,4572.0
69.393486039,4489.0
69.410197308,4455.0
69.426908577,4601.0
69.443619846,4371.0
69.460331115,4542.0
69.477042384,4518.0
69.493753653,4391.0
69.510464922,4399.0
69.527176191,4548.0
69.543887460,4394.0
69.560598729,4496.0
69.577309998,4517.0
69.594021267,4572.0
69.610732536,4393.0
69.627443805,4415.0
69.644155074,4424.0
69.660866343,4436.0
69.677577612,4390.0
69.694288881,4476.0
69.711000150,4528.0
69.727711419,4428.0
69.744422688,4540.0
69.761133956,4381.0
69.777845225,4487.0
69.794556494,4510.0
69.811267763,4479.0
69.827979032,4590.0
69.844690301,4585.0
69.861401570,4700.0
69.878112839,4481.0
69.894824108,4435.0
69.911535377,4538.0
69.928246646,4584.0
69.944957915,4451.0
69.961669184,4377.0
69.978380453,4611.0
69.995091722,4487.0
70.011802991,4488.0
70.028514260,4479.0
70.045225529,4412.0
70.061936798,4456.0
70.078648067,4401.0
70.095359336,4482.0
70.112070605,4330.0
70.128781874,4453.0
70.145493143,4550.0
70.162204412,4470.0
70.178915681,4532.0
70.195626950,4479.0
70.212338219,4539.0
70.229049488,4561.0
70.245760757,4522.0
70.262472026,4524.0
70.279183295,4627.0
70.295894564,4610.0
70.312605833,4467.0
70.329317102,4289.0
70.346028371,4362.0
70.362739640,4555.0
70.379450909,4521.0
70.396162178,4610.0
70.412873447,4425.0
70.429584716,4495.0
70.446295985,4555.0
70.463007254,4550.0
70.479718523,4542.0
70.496429792,4382.0
70.513141061,4601.0
70.529852330,4570.0
70.546563599,4580.0
70.563274867,4472.0
70.579986136,4573.0
70.596697405,4554.0
70.613408674,4601.0
70.630119943,4572.0
70.646831212,4569.0
70.663542481,4510.0
70.680253750,4533.0
70.696965019,4597.0
70.713676288,4599.0
70.730387557,4518.0
70.747098826,4595.0
70.763810095,4619.0
70.780521364,4567.0
70.797232633,4620.0
70.813943902,4683.0
70.830655171,4565.0
70.847366440,4534.0
70.864077709,4490.0
70.880788978,4546.0
70.897500247,4645.0
70.914211516,4625.0
70.930922785,4551.0
70.947634054,4578.0
70.964345323,4634.0
70.981056592,4462.0
70.997767861,4613.0
71.014479130,4530.0
71.031190399,4632.0
71.047901668,4563.0
71.064612937,4653.0
71.081324206,4620.0
71.098035475,4638.0
71.114746744,4570.0
71.131458013,4659.0
71.148169282,4592.0
71.164880551,4540.0
71.181591820,4652.0
71.198303089,4698.0
71.215014358,4540.0
71.231725627,4470.0
71.248436896,4516.0
71.265148165,4540.0
71.281859434,4648.0
71.298570703,4635.0
71.315281972,4624.0
71.331993241,4470.0
71.348704510,4631.0
71.365415779,4505.0
71.382127047,4445.0
71.398838316,4632.0
71.415549585,4654.0
71.432260854,4664.0
71.448972123,4674.0
71.465683392,4580.0
71.482394661,4577.0
71.499105930,4530.0
71.515817199,4644.0
71.532528468,4731.0
71.549239737,4599.0
71.565951006,4646.0
71.582662275,4541.0
71.599373544,4458.0
71.616084813,4429.0
71.632796082,4609.0
71.649507351,4480.0
71.666218620,4615.0
71.682929889,4553.0
71.699641158,4562.0
71.716352427,4633.0
71.733063696,4577.0
71.749774965,4634.0
71.766486234,4508.0
71.783197503,4475.0
71.799908772,4523.0
71.816620041,4499.0
71.833331310,4586.0
71.850042579,4536.0
71.866753848,4614.0
71.883465117,4570.0
71.900176386,4684.0
71.916887655,4580.0
71.933598924,4727.0
71.950310193,4516.0
71.967021462,4407.0
71.983732731,4657.0
72.000444000,4565.0
72.017155269,4631.0
72.033866538,4616.0
72.050577807,4660.0
72.067289076,4682.0
72.084000345,4576.0
72.100711614,4517.0
72.117422883,4591.0
72.134134152,4730.0
72.150845421,4655.0
72.167556690,4628.0
72.184267958,4667.0
72.200979227,4582.0
72.217690496,4698.0
72.234401765,4658.0
72.251113034,4591.0
72.267824303,4694.0
72.284535572,4668.0
72.301246841,4786.0
72.317958110,4758.0
72.334669379,4621.0
72.351380648,4733.0
72.368091917,4618.0
72.384803186,4652.0
72.401514455,4625.0
72.418225724,4677.0
72.434936993,4587.0
72.451648262,4643.0
72.468359531,4578.0
72.485070800,4641.0
72.501782069,4690.0
72.518493338,4713.0
72.535204607,4689.0
72.551915876,4641.0
72.568627145,4661.0
72.585338414,4658.0
72.602049683,4585.0
72.618760952,4665.0
72.635472221,4725.0
72.652183490,4735.0
72.668894759,4766.0
72.685606028,4709.0
72.702317297,4728.0
72.719028566,4737.0
72.735739835,4697.0
72.752451104,4782.0
72.769162373,4721.0
72.785873642,4757.0
72.802584911,4680.0
72.819296180,4852.0
72.836007449,4792.0
72.852718718,4796.0
72.869429987,4636.0
72.886141256,4635.0
72.902852525,4850.0
72.919563794,4797.0
72.936275063,4857.0
72.952986332,4764.0
72.969697601,4790.0
72.986408869,4851.0
73.003120138,4883.0
73.019831407,4837.0
73.036542676,4824.0
73.053253945,4861.0
73.069965214,4934.0
73.086676483,4986.0
73.103387752,4969.0
73.120099021,5030.0
73.136810290,5048.0
73.153521559,5155.0
73.170232828,5038.0
73.186944097,5273.0
73.203655366,5189.0
73.220366635,5194.0
73.237077904,5274.0
73.253789173,5387.0
73.270500442,5323.0
73.287211711,5352.0
73.303922980,5670.0
73.320634249,5875.0
73.337345518,6036.0
73.354056787,5970.0
73.370768056,6395.0
73.387479325,6821.0
73.404190594,7415.0
73.420901863,8830.0
73.437613132,10733.0
73.454324401,13620.0
73.471035670,16970.0
73.487746939,21148.0
73.504458208,25353.0
73.521169477,28610.0
73.537880746,30249.0
73.554592015,29362.0
73.571303284,27185.0
73.588014553,24458.0
73.604725822,22099.0
73.621437091,20007.0
73.638148360,18803.0
73.654859629,17761.0
73.671570898,17725.0
73.688282167,18419.0
73.704993436,19069.0
73.721704705,19791.0
73.738415974,20619.0
73.755127243,20585.0
73.771838512,19471.0
73.788549780,17908.0
73.805261049,16494.0
73.821972318,14448.0
73.838683587,12909.0
73.855394856,12035.0
73.872106125,10988.0
73.888817394,10055.0
73.905528663,9193.0
73.922239932,8741.0
73.938951201,8055.0
73.955662470,7722.0
73.972373739,7354.0
73.989085008,6856.0
74.005796277,6656.0
74.022507546,6467.0
74.039218815,6332.0
74.055930084,6205.0
74.072641353,6083.0
74.089352622,5935.0
74.106063891,5858.0
74.122775160,5603.0
74.139486429,5485.0
74.156197698,5687.0
74.172908967,5419.0
74.189620236,5495.0
74.206331505,5197.0
74.223042774,5119.0
74.239754043,5258.0
74.256465312,5221.0
74.273176581,5274.0
74.289887850,5142.0
74.306599119,5143.0
74.323310388,5088.0
74.340021657,5059.0
74.356732926,5105.0
74.373444195,4993.0
74.390155464,4978.0
74.406866733,4904.0
74.423578002,4994.0
74.440289271,5059.0
74.457000540,5011.0
74.473711809,4839.0
74.490423078,4875.0
74.507134347,4959.0
74.523845616,4967.0
74.540556885,4833.0
74.557268154,4858.0
74.573979423,4777.0
74.590690692,4811.0
74.607401960,4827.0
74.624113229,4837.0
74.640824498,4717.0
74.657535767,4665.0
74.674247036,4839.0
74.690958305,4820.0
74.707669574,4767.0
74.724380843,4540.0
74.741092112,4670.0
74.757803381,4673.0
74.774514650,4809.0
74.791225919,4498.0
74.807937188,4632.0
74.824648457,4553.0
74.841359726,4713.0
74.858070995,4692.0
74.874782264,4633.0
74.891493533,4678.0
74.908204802,4777.0
74.924916071,4736.0
74.941627340,4679.0
74.958338609,4699.0
74.975049878,4714.0
74.991761147,4822.0
75.008472416,4722.0
75.025183685,4648.0
75.041894954,4669.0
75.058606223,4635.0
75.075317492,4666.0
75.092028761,4638.0
75.108740030,4601.0
75.125451299,4557.0
75.142162568,4558.0
75.158873837,4580.0
75.175585106,4736.0
75.192296375,4609.0
75.209007644,4761.0
75.225718913,4585.0
75.242430182,4725.0
75.259141451,4595.0
75.275852720,4616.0
75.292563989,4724.0
75.309275258,4734.0
75.325986527,4633.0
75.342697796,4614.0
75.359409065,4607.0
75.376120334,4663.0
75.392831603,4702.0
75.409542871,4657.0
75.426254140,4557.0
75.442965409,4706.0
75.459676678,4628.0
75.476387947,4689.0
75.493099216,4582.0
75.509810485,4579.0
75.526521754,4655.0
75.543233023,4649.0
75.559944292,4586.0
75.576655561,4694.0
75.593366830,4540.0
75.610078099,4638.0
75.626789368,4732.0
75.643500637,4734.0
75.660211906,4612.0
75.676923175,4656.0
75.693634444,4705.0
75.710345713,4591.0
75.727056982,4600.0
75.743768251,4718.0
75.760479520,4589.0
75.777190789,4600.0
75.793902058,4655.0
75.810613327,4566.0
75.827324596,4636.0
75.844035865,4562.0
75.860747134,4675.0
75.877458403,4470.0
75.894169672,4635.0
75.910880941,4526.0
75.927592210,4674.0
75.944303479,4603.0
75.961014748,4698.0
75.977726017,4628.0
75.994437286,4535.0
76.011148555,4576.0
76.027859824,4673.0
76.044571093,4502.0
76.061282362,4557.0
76.077993631,4657.0
76.094704900,4732.0
76.111416169,4669.0
76.128127438,4582.0
76.144838707,4481.0
76.161549976,4588.0
76.178261245,4469.0
76.194972514,4628.0
76.211683782,4678.0
76.228395051,4601.0
76.245106320,4505.0
76.261817589,4518.0
76.278528858,4724.0
76.295240127,4671.0
76.311951396,4549.0
76.328662665,4727.0
76.345373934,4585.0
76.362085203,4734.0
76.378796472,4593.0
76.395507741,4551.0
76.412219010,4594.0
76.428930279,4614.0
76.445641548,4540.0
76.462352817,4724.0
76.479064086,4569.0
76.495775355,4493.0
76.512486624,4569.0
76.529197893,4721.0
76.545909162,4715.0
76.562620431,4545.0
76.579331700,4547.0
76.596042969,4552.0
76.612754238,4618.0
76.629465507,4554.0
76.646176776,4601.0
76.662888045,4629.0
76.679599314,4565.0
76.696310583,4582.0
76.713021852,4471.0
76.729733121,4574.0
76.746444390,4746.0
76.763155659,4616.0
76.779866928,4531.0
76.796578197,4655.0
76.813289466,4720.0
76.830000735,4453.0
76.846712004,4564.0
76.863423273,4589.0
76.880134542,4484.0
76.896845811,4584.0
76.913557080,4580.0
76.930268349,4516.0
76.946979618,4600.0
76.963690887,4699.0
76.980402156,4572.0
76.997113425,4557.0
77.013824693,4547.0
77.030535962,4689.0
77.047247231,4722.0
77.063958500,4566.0
77.080669769,4493.0
77.097381038,4544.0
77.114092307,4615.0
77.130803576,4513.0
77.147514845,4519.0
77.164226114,4582.0
77.180937383,4541.0
77.197648652,4581.0
77.214359921,4529.0
77.231071190,4626.0
77.247782459,4711.0
77.264493728,4444.0
77.281204997,4600.0
77.297916266,4575.0
77.314627535,4542.0
77.331338804,4513.0
77.348050073,4656.0
77.364761342,4607.0
77.381472611,4630.0
77.398183880,4689.0
77.414895149,4617.0
77.431606418,4602.0
77.448317687,4403.0
77.465028956,4531.0
77.481740225,4626.0
77.498451494,4663.0
77.515162763,4532.0
77.531874032,4552.0
77.548585301,4552.0
77.565296570,4688.0
77.582007839,4695.0
77.598719108,4647.0
77.615430377,4619.0
77.632141646,4471.0
77.648852915,4625.0
77.665564184,4696.0
77.682275453,4668.0
77.698986722,4549.0
77.715697991,4681.0
77.732409260,4437.0
77.749120529,4633.0
77.765831798,4561.0
77.782543067,4573.0
77.799254336,4719.0
77.815965605,4594.0
77.832676873,4624.0
77.849388142,4492.0
77.866099411,4628.0
77.882810680,4656.0
77.899521949,4667.0
77.916233218,4485.0
77.932944487,4606.0
77.949655756,4529.0
77.966367025,4592.0
77.983078294,4578.0
77.999789563,4556.0
78.016500832,4619.0
78.033212101,4601.0
78.049923370,4596.0
78.066634639,4498.0
78.083345908,4581.0
78.100057177,4591.0
78.116768446,4552.0
78.133479715,4627.0
78.150190984,4447.0
78.166902253,4502.0
78.183613522,4550.0
78.200324791,4638.0
78.217036060,4624.0
78.233747329,4468.0
78.250458598,4462.0
78.267169867,4717.0
78.283881136,4580.0
78.300592405,4626.0
78.317303674,4578.0
78.334014943,4623.0
78.350726212,4509.0
78.367437481,4532.0
78.384148750,4541.0
78.400860019,4503.0
78.417571288,4574.0
78.434282557,4511.0
78.450993826,4478.0
78.467705095,4498.0
78.484416364,4658.0
78.501127633,4523.0
78.517838902,4600.0
78.534550171,4621.0
78.551261440,4532.0
78.567972709,4485.0
78.584683978,4505.0
78.601395247,4496.0
78.618106516,4486.0
78.634817784,4693.0
78.651529053,4564.0
78.668240322,4433.0
78.684951591,4582.0
78.701662860,4673.0
78.718374129,4592.0
78.735085398,4552.0
78.751796667,4576.0
78.768507936,4591.0
78.785219205,4598.0
78.801930474,4570.0
78.818641743,4554.0
78.835353012,4687.0
78.852064281,4498.0
78.868775550,4552.0
78.885486819,4609.0
78.902198088,4477.0
78.918909357,4559.0
78.935620626,4508.0
78.952331895,4667.0
78.969043164,4600.0
78.985754433,4491.0
79.002465702,4508.0
79.019176971,4442.0
79.035888240,4487.0
79.052599509,4506.0
79.069310778,4627.0
79.086022047,4467.0
79.102733316,4472.0
79.119444585,4545.0
79.136155854,4442.0
79.152867123,4468.0
79.169578392,4506.0
79.186289661,4510.0
79.203000930,4423.0
79.219712199,4475.0
79.236423468,4659.0
79.253134737,4479.0
79.269846006,4598.0
79.286557275,4500.0
79.303268544,4459.0
79.319979813,4669.0
79.336691082,4556.0
79.353402351,4456.0
79.370113620,4603.0
79.386824889,4534.0
79.403536158,4469.0
79.420247427,4366.0
79.436958695,4593.0
79.453669964,4458.0
79.470381233,4447.0
79.487092502,4577.0
79.503803771,4497.0
79.520515040,4471.0
79.537226309,4518.0
79.553937578,4491.0
79.570648847,4545.0
79.587360116,4575.0
79.604071385,4494.0
79.620782654,4634.0
79.637493923,4523.0
79.654205192,4578.0
79.670916461,4539.0
79.687627730,4546.0
79.704338999,4617.0
79.721050268,4546.0
79.737761537,4605.0
79.754472806,4631.0
79.771184075,4545.0
79.787895344,4621.0
79.804606613,4587.0
79.821317882,4516.0
79.838029151,4583.0
79.854740420,4409.0
79.871451689,4641.0
79.888162958,4531.0
79.904874227,4537.0
79.921585496,4560.0
79.938296765,4576.0
79.955008034,4581.0
79.971719303,4473.0
79.988430572,4586.0
80.005141841,4520.0
80.021853110,4567.0
80.038564379,4586.0
80.055275648,4617.0
80.071986917,4502.0
80.088698186,4644.0
80.105409455,4573.0
80.122120724,4565.0
80.138831993,4560.0
80.155543262,4621.0
80.172254531,4591.0
80.188965800,4555.0
80.205677069,4670.0
80.222388338,4505.0
80.239099606,4554.0
80.255810875,4546.0
80.272522144,4420.0
80.289233413,4737.0
80.305944682,4537.0
80.322655951,4489.0
80.339367220,4652.0
80.356078489,4663.0
80.372789758,4693.0
80.389501027,4523.0
80.406212296,4486.0
80.422923565,4627.0
80.439634834,4575.0
80.456346103,4514.0
80.473057372,4623.0
80.489768641,4563.0
80.506479910,4542.0
80.523191179,4620.0
80.539902448,4506.0
80.556613717,4522.0
80.573324986,4561.0
80.590036255,4583.0
80.606747524,4580.0
80.623458793,4636.0
80.640170062,4543.0
80.656881331,4532.0
80.673592600,4643.0
80.690303869,4668.0
80.707015138,4448.0
80.723726407,4669.0
80.740437676,4521.0
80.757148945,4663.0
80.773860214,4552.0
80.790571483,4618.0
80.807282752,4614.0
80.823994021,4592.0
80.840705290,4555.0
80.857416559,4541.0
80.874127828,4534.0
80.890839097,4488.0
80.907550366,4644.0
80.924261635,4606.0
80.940972904,4636.0
80.957684173,4576.0
80.974395442,4587.0
80.991106711,4451.0
81.007817980,4502.0
81.024529249,4457.0
81.041240518,4601.0
81.057951786,4523.0
81.074663055,4536.0
81.091374324,4603.0
81.108085593,4462.0
81.124796862,4470.0
81.141508131,4599.0
81.158219400,4653.0
81.174930669,4674.0
81.191641938,4608.0
81.208353207,4483.0
81.225064476,4448.0
81.241775745,4663.0
81.258487014,4625.0
81.275198283,4527.0
81.291909552,4497.0
81.308620821,4437.0
81.325332090,4563.0
81.342043359,4476.0
81.358754628,4418.0
81.375465897,4666.0
81.392177166,4523.0
81.408888435,4405.0
81.425599704,4535.0
81.442310973,4544.0
81.459022242,4575.0
81.475733511,4592.0
81.492444780,4613.0
81.509156049,4715.0
81.525867318,4476.0
81.542578587,4501.0
81.559289856,4461.0
81.576001125,4689.0
81.592712394,4560.0
81.609423663,4669.0
81.626134932,4473.0
81.642846201,4600.0
81.659557470,4708.0
81.676268739,4733.0
81.692980008,4640.0
81.709691277,4721.0
81.726402546,4763.0
81.743113815,4868.0
81.759825084,4758.0
81.776536353,4744.0
81.793247622,4751.0
81.809958891,4587.0
81.826670160,4541.0
81.843381429,4596.0
81.860092697,4587.0
81.876803966,4530.0
81.893515235,4695.0
81.910226504,4482.0
81.926937773,4651.0
81.943649042,4768.0
81.960360311,4627.0
81.977071580,4617.0
81.993782849,4767.0
82.010494118,4676.0
82.027205387,4556.0
82.043916656,4541.0
82.060627925,4593.0
82.077339194,4493.0
82.094050463,4486.0
82.110761732,4553.0
82.127473001,4568.0
82.144184270,4501.0
82.160895539,4595.0
82.177606808,4559.0
82.194318077,4585.0
82.211029346,4617.0
82.227740615,4497.0
82.244451884,4629.0
82.261163153,4529.0
82.277874422,4502.0
82.294585691,4423.0
82.311296960,4674.0
82.328008229,4464.0
82.344719498,4609.0
82.361430767,4590.0
82.378142036,4476.0
82.394853305,4604.0
82.411564574,4523.0
82.428275843,4485.0
82.444987112,4493.0
82.461698381,4559.0
82.478409650,4470.0
82.495120919,4569.0
82.511832188,4584.0
82.528543457,4545.0
82.545254726,4530.0
82.561965995,4361.0
82.578677264,4690.0
82.595388533,4593.0
82.612099802,4623.0
82.628811071,4542.0
82.645522340,4420.0
82.662233608,4615.0
82.678944877,4594.0
82.695656146,4547.0
82.712367415,4496.0
82.729078684,4622.0
82.745789953,4528.0
82.762501222,4587.0
82.779212491,4660.0
82.795923760,4643.0
82.812635029,4594.0
82.829346298,4555.0
82.846057567,4462.0
82.862768836,4529.0
82.879480105,4478.0
82.896191374,4624.0
82.912902643,4599.0
82.929613912,4589.0
82.946325181,4599.0
82.963036450,4528.0
82.979747719,4597.0
82.996458988,4426.0
83.013170257,4529.0
83.029881526,4541.0
83.046592795,4361.0
83.063304064,4513.0
83.080015333,4527.0
83.096726602,4575.0
83.113437871,4567.0
83.130149140,4608.0
83.146860409,4530.0
83.163571678,4559.0
83.180282947,4600.0
83.196994216,4632.0
83.213705485,4574.0
83.230416754,4621.0
83.247128023,4604.0
83.263839292,4624.0
83.280550561,4684.0
83.297261830,4506.0
83.313973099,4620.0
83.330684368,4514.0
83.347395637,4428.0
83.364106906,4510.0
83.380818175,4697.0
83.397529444,4497.0
83.414240713,4488.0
83.430951982,4548.0
83.447663251,4649.0
83.464374519,4529.0
83.481085788,4580.0
83.497797057,4585.0
83.514508326,4560.0
83.531219595,4463.0
83.547930864,4492.0
83.564642133,4492.0
83.581353402,4403.0
83.598064671,4541.0
83.614775940,4564.0
83.631487209,4608.0
83.648198478,4512.0
83.664909747,4552.0
83.681621016,4572.0
83.698332285,4643.0
83.715043554,4443.0
83.731754823,4494.0
83.748466092,4559.0
83.765177361,4605.0
83.781888630,4607.0
83.798599899,4710.0
83.815311168,4574.0
83.832022437,4429.0
83.848733706,4446.0
83.865444975,4518.0
83.882156244,4630.0
83.898867513,4610.0
83.915578782,4463.0
83.932290051,4569.0
83.949001320,4521.0
83.965712589,4696.0
83.982423858,4489.0
83.999135127,4579.0
84.015846396,4728.0
84.032557665,4481.0
84.049268934,4482.0
84.065980203,4576.0
84.082691472,4595.0
84.099402741,4527.0
84.116114010,4562.0
84.132825279,4557.0
84.149536548,4602.0
84.166247817,4465.0
84.182959086,4644.0
84.199670355,4596.0
84.216381624,4424.0
84.233092893,4614.0
84.249804162,4532.0
84.266515431,4524.0
84.283226699,4569.0
84.299937968,4531.0
84.316649237,4568.0
84.333360506,4496.0
84.350071775,4639.0
84.366783044,4431.0
84.383494313,4588.0
84.400205582,4445.0
84.416916851,4580.0
84.433628120,4485.0
84.450339389,4557.0
84.467050658,4502.0
84.483761927,4389.0
84.500473196,4565.0
84.517184465,4546.0
84.533895734,4644.0
84.550607003,4688.0
84.567318272,4567.0
84.584029541,4600.0
84.600740810,4545.0
84.617452079,4657.0
84.634163348,4556.0
84.650874617,4576.0
84.667585886,4705.0
84.684297155,4604.0
84.701008424,4436.0
84.717719693,4526.0
84.734430962,4505.0
84.751142231,4539.0
84.767853500,4628.0
84.784564769,4504.0
84.801276038,4599.0
84.817987307,4556.0
84.834698576,4602.0
84.851409845,4616.0
84.868121114,4498.0
84.884832383,4497.0
84.901543652,4622.0
84.918254921,4575.0
84.934966190,4536.0
84.951677459,4548.0
84.968388728,4655.0
84.985099997,4538.0
85.001811266,4667.0
85.018522535,4671.0
85.035233804,4595.0
85.051945073,4522.0
85.068656342,4629.0
85.085367610,4587.0
85.102078879,4568.0
85.118790148,4662.0
85.135501417,4559.0
85.152212686,4501.0
85.168923955,4633.0
85.185635224,4653.0
85.202346493,4668.0
85.219057762,4660.0
85.235769031,4668.0
85.252480300,4518.0
85.269191569,4645.0
85.285902838,4589.0
85.302614107,4512.0
85.319325376,4505.0
85.336036645,4648.0
85.352747914,4579.0
85.369459183,4416.0
85.386170452,4653.0
85.402881721,4538.0
85.419592990,4498.0
85.436304259,4570.0
85.453015528,4673.0
85.469726797,4501.0
85.486438066,4645.0
85.503149335,4599.0
85.519860604,4657.0
85.536571873,4414.0
85.553283142,4552.0
85.569994411,4614.0
85.586705680,4484.0
85.603416949,4613.0
85.620128218,4518.0
85.636839487,4638.0
85.653550756,4590.0
85.670262025,4548.0
85.686973294,4670.0
85.703684563,4434.0
85.720395832,4607.0
85.737107101,4515.0
85.753818370,4477.0
85.770529639,4530.0
85.787240908,4582.0
85.803952177,4681.0
85.820663446,4635.0
85.837374715,4699.0
85.854085984,4588.0
85.870797253,4560.0
85.887508521,4579.0
85.904219790,4501.0
85.920931059,4621.0
85.937642328,4684.0
85.954353597,4553.0
85.971064866,4664.0
85.987776135,4652.0
86.004487404,4594.0
86.021198673,4489.0
86.037909942,4482.0
86.054621211,4453.0
86.071332480,4450.0
86.088043749,4603.0
86.104755018,4560.0
86.121466287,4563.0
86.138177556,4698.0
86.154888825,4568.0
86.171600094,4542.0
86.188311363,4574.0
86.205022632,4626.0
86.221733901,4477.0
86.238445170,4608.0
86.255156439,4523.0
86.271867708,4572.0
86.288578977,4564.0
86.305290246,4603.0
86.322001515,4605.0
86.338712784,4646.0
86.355424053,4629.0
86.372135322,4590.0
86.388846591,4744.0
86.405557860,4610.0
86.422269129,4602.0
86.438980398,4718.0
86.455691667,4508.0
86.472402936,4669.0
86.489114205,4587.0
86.505825474,4557.0
86.522536743,4462.0
86.539248012,4566.0
86.555959281,4576.0
86.572670550,4502.0
86.589381819,4651.0
86.606093088,4635.0
86.622804357,4573.0
86.639515626,4633.0
86.656226895,4649.0
86.672938164,4686.0
86.689649432,4514.0
86.706360701,4616.0
86.723071970,4608.0
86.739783239,4705.0
86.756494508,4524.0
86.773205777,4631.0
86.789917046,4589.0
86.806628315,4517.0
86.823339584,4712.0
86.840050853,4524.0
86.856762122,4663.0
86.873473391,4477.0
86.890184660,4579.0
86.906895929,4449.0
86.923607198,4612.0
86.940318467,4587.0
86.957029736,4498.0
86.973741005,4574.0
86.990452274,4641.0
87.007163543,4610.0
87.023874812,4499.0
87.040586081,4582.0
87.057297350,4549.0
87.074008619,4605.0
87.090719888,4551.0
87.107431157,4625.0
87.124142426,4623.0
87.140853695,4674.0
87.157564964,4705.0
87.174276233,4677.0
87.190987502,4486.0
87.207698771,4552.0
87.224410040,4608.0
87.241121309,4660.0
87.257832578,4600.0
87.274543847,4570.0
87.291255116,4636.0
87.307966385,4532.0
87.324677654,4572.0
87.341388923,4574.0
87.358100192,4689.0
87.374811461,4565.0
87.391522730,4486.0
87.408233999,4544.0
87.424945268,4657.0
87.441656537,4657.0
87.458367806,4693.0
87.475079075,4512.0
87.491790344,4521.0
87.508501612,4525.0
87.525212881,4588.0
87.541924150,4589.0
87.558635419,4554.0
87.575346688,4603.0
87.592057957,4556.0
87.608769226,4659.0
87.625480495,4620.0
87.642191764,4623.0
87.658903033,4561.0
87.675614302,4632.0
87.692325571,4606.0
87.709036840,4743.0
87.725748109,4542.0
87.742459378,4507.0
87.759170647,4459.0
87.775881916,4587.0
87.792593185,4583.0
87.809304454,4618.0
87.826015723,4629.0
87.842726992,4608.0
87.859438261,4560.0
87.876149530,4700.0
87.892860799,4530.0
87.909572068,4663.0
87.926283337,4787.0
87.942994606,4659.0
87.959705875,4577.0
87.976417144,4466.0
87.993128413,4698.0
88.009839682,4733.0
88.026550951,4660.0
88.043262220,4620.0
88.059973489,4619.0
88.076684758,4568.0
88.093396027,4551.0
88.110107296,4560.0
88.126818565,4590.0
88.143529834,4453.0
88.160241103,4542.0
88.176952372,4606.0
88.193663641,4698.0
88.210374910,4668.0
88.227086179,4648.0
88.243797448,4742.0
88.260508717,4618.0
88.277219986,4581.0
88.293931255,4614.0
88.310642523,4720.0
88.327353792,4598.0
88.344065061,4605.0
88.360776330,4656.0
88.377487599,4716.0
88.394198868,4590.0
88.410910137,4444.0
88.427621406,4576.0
88.444332675,4675.0
88.461043944,4608.0
88.477755213,4637.0
88.494466482,4789.0
88.511177751,4625.0
88.527889020,4516.0
88.544600289,4728.0
88.561311558,4659.0
88.578022827,4577.0
88.594734096,4548.0
88.611445365,4630.0
88.628156634,4724.0
88.644867903,4715.0
88.661579172,4803.0
88.678290441,4713.0
88.695001710,4715.0
88.711712979,4641.0
88.728424248,4780.0
88.745135517,4714.0
88.761846786,4635.0
88.778558055,4832.0
88.795269324,4777.0
88.811980593,4747.0
88.828691862,4651.0
88.845403131,4740.0
88.862114400,4778.0
88.878825669,4826.0
88.895536938,4904.0
88.912248207,4740.0
88.928959476,4921.0
88.945670745,4751.0
88.962382014,4878.0
88.979093283,5024.0
88.995804552,4900.0
89.012515821,5014.0
89.029227090,5231.0
89.045938359,5189.0
89.062649628,5428.0
89.079360897,5697.0
89.096072166,5957.0
89.112783434,6545.0
89.129494703,7321.0
89.146205972,8046.0
89.162917241,9099.0
89.179628510,9902.0
89.196339779,10515.0
89.213051048,10923.0
89.229762317,10904.0
89.246473586,10668.0
89.263184855,10692.0
89.279896124,10453.0
89.296607393,10212.0
89.313318662,10051.0
89.330029931,10150.0
89.346741200,9824.0
89.363452469,9796.0
89.380163738,9613.0
89.396875007,9753.0
89.413586276,9910.0
89.430297545,10093.0
89.447008814,10271.0
89.463720083,10630.0
89.480431352,10819.0
89.497142621,10733.0
89.513853890,10424.0
89.530565159,10282.0
89.547276428,10014.0
89.563987697,9511.0
89.580698966,9197.0
89.597410235,8735.0
89.614121504,8608.0
89.630832773,8459.0
89.647544042,8077.0
89.664255311,7813.0
89.680966580,7538.0
89.697677849,7431.0
89.714389118,7257.0
89.731100387,6901.0
89.747811656,6882.0
89.764522925,6601.0
89.781234194,6397.0
89.797945463,6291.0
89.814656732,6048.0
89.831368001,6085.0
89.848079270,5894.0
89.864790539,5644.0
89.881501808,5688.0
89.898213077,5453.0
89.914924345,5282.0
89.931635614,5342.0
89.948346883,5294.0
89.965058152,5162.0
89.981769421,5140.0
89.998480690,5084.0
90.015191959,5169.0
90.031903228,4829.0
90.048614497,4859.0
90.065325766,4704.0
90.082037035,4832.0
90.098748304,4766.0
90.115459573,4822.0
90.132170842,4629.0
90.148882111,4670.0
90.165593380,4570.0
90.182304649,4636.0
90.199015918,4684.0
90.215727187,4661.0
90.232438456,4642.0
90.249149725,4642.0
90.265860994,4763.0
90.282572263,4505.0
90.299283532,4480.0
90.315994801,4563.0
90.332706070,4554.0
90.349417339,4666.0
90.366128608,4682.0
90.382839877,4583.0
90.399551146,4620.0
90.416262415,4574.0
90.432973684,4559.0
90.449684953,4647.0
90.466396222,4508.0
90.483107491,4542.0
90.499818760,4532.0
90.516530029,4549.0
90.533241298,4479.0
90.549952567,4532.0
90.566663836,4549.0
90.583375105,4576.0
90.600086374,4496.0
90.616797643,4608.0
90.633508912,4412.0
90.650220181,4522.0
90.666931450,4559.0
90.683642719,4502.0
90.700353988,4436.0
90.717065257,4417.0
90.733776525,4573.0
90.750487794,4556.0
90.767199063,4535.0
90.783910332,4502.0
90.800621601,4479.0
90.817332870,4413.0
90.834044139,4440.0
90.850755408,4556.0
90.867466677,4738.0
90.884177946,4515.0
90.900889215,4656.0
90.917600484,4560.0
90.934311753,4371.0
90.951023022,4523.0
90.967734291,4562.0
90.984445560,4624.0
91.001156829,4385.0
91.017868098,4569.0
91.034579367,4482.0
91.051290636,4501.0
91.068001905,4465.0
91.084713174,4495.0
91.101424443,4555.0
91.118135712,4484.0
91.134846981,4536.0
91.151558250,4412.0
91.168269519,4521.0
91.184980788,4608.0
91.201692057,4475.0
91.218403326,4494.0
91.235114595,4522.0
91.251825864,4465.0
91.268537133,4477.0
91.285248402,4584.0
91.301959671,4511.0
91.318670940,4578.0
91.335382209,4448.0
91.352093478,4618.0
91.368804747,4436.0
91.385516016,4491.0
91.402227285,4416.0
91.418938554,4547.0
91.435649823,4343.0
91.452361092,4496.0
91.469072361,4412.0
91.485783630,4453.0
91.502494899,4511.0
91.519206168,4443.0
91.535917436,4430.0
91.552628705,4491.0
91.569339974,4514.0
91.586051243,4544.0
91.602762512,4542.0
91.619473781,4524.0
91.636185050,4537.0
91.652896319,4612.0
91.669607588,4451.0
91.686318857,4549.0
91.703030126,4572.0
91.719741395,4546.0
91.736452664,4571.0
91.753163933,4484.0
91.769875202,4599.0
91.786586471,4567.0
91.803297740,4539.0
91.820009009,4461.0
91.836720278,4523.0
91.853431547,4575.0
91.870142816,4547.0
91.886854085,4431.0
91.903565354,4413.0
91.920276623,4507.0
91.936987892,4497.0
91.953699161,4471.0
91.970410430,4536.0
91.987121699,4513.0
92.003832968,4427.0
92.020544237,4568.0
92.037255506,4509.0
92.053966775,4498.0
92.070678044,4451.0
92.087389313,4482.0
92.104100582,4515.0
92.120811851,4491.0
92.137523120,4442.0
92.154234389,4604.0
92.170945658,4565.0
92.187656927,4517.0
92.204368196,4642.0
92.221079465,4419.0
92.237790734,4523.0
92.254502003,4614.0
92.271213272,4528.0
92.287924541,4482.0
92.304635810,4540.0
92.321347079,4571.0
92.338058347,4507.0
92.354769616,4505.0
92.371480885,4554.0
92.388192154,4559.0
92.404903423,4510.0
92.421614692,4486.0
92.438325961,4544.0
92.455037230,4540.0
92.471748499,4531.0
92.488459768,4621.0
92.505171037,4541.0
92.521882306,4481.0
92.538593575,4503.0
92.555304844,4555.0
92.572016113,4547.0
92.588727382,4497.0
92.605438651,4621.0
92.622149920,4656.0
92.638861189,4675.0
92.655572458,4495.0
92.672283727,4494.0
92.688994996,4445.0
92.705706265,4567.0
92.722417534,4495.0
92.739128803,4499.0
92.755840072,4544.0
92.772551341,4528.0
92.789262610,4530.0
92.805973879,4422.0
92.822685148,4552.0
92.839396417,4536.0
92.856107686,4456.0
92.872818955,4756.0
92.889530224,4473.0
92.906241493,4649.0
92.922952762,4464.0
92.939664031,4586.0
92.956375300,4439.0
92.973086569,4617.0
92.989797838,4572.0
93.006509107,4413.0
93.023220376,4561.0
93.039931645,4559.0
93.056642914,4472.0
93.073354183,4417.0
93.090065452,4488.0
93.106776721,4533.0
93.123487990,4555.0
93.140199258,4519.0
93.156910527,4490.0
93.173621796,4403.0
93.190333065,4369.0
93.207044334,4603.0
93.223755603,4569.0
93.240466872,4640.0
93.257178141,4610.0
93.273889410,4585.0
93.290600679,4577.0
93.307311948,4503.0
93.324023217,4557.0
93.340734486,4520.0
93.357445755,4420.0
93.374157024,4635.0
93.390868293,4570.0
93.407579562,4567.0
93.424290831,4557.0
93.441002100,4537.0
93.457713369,4543.0
93.474424638,4466.0
93.491135907,4461.0
93.507847176,4415.0
93.524558445,4625.0
93.541269714,4397.0
93.557980983,4467.0
93.574692252,4453.0
93.591403521,4630.0
93.608114790,4609.0
93.624826059,4504.0
93.641537328,4505.0
93.658248597,4690.0
93.674959866,4545.0
93.691671135,4547.0
93.708382404,4667.0
93.725093673,4568.0
93.741804942,4532.0
93.758516211,4556.0
93.775227480,4708.0
93.791938749,4573.0
93.808650018,4570.0
93.825361287,4590.0
93.842072556,4688.0
93.858783825,4705.0
93.875495094,4601.0
93.892206363,4749.0
93.908917632,4699.0
93.925628901,4730.0
93.942340170,4609.0
93.959051438,4771.0
93.975762707,4785.0
93.992473976,4656.0
94.009185245,4690.0
94.025896514,4672.0
94.042607783,4669.0
94.059319052,4779.0
94.076030321,4691.0
94.092741590,4801.0
94.109452859,4739.0
94.126164128,4862.0
94.142875397,4813.0
94.159586666,4987.0
94.176297935,5038.0
94.193009204,5035.0
94.209720473,5359.0
94.226431742,5584.0
94.243143011,5799.0
94.259854280,6243.0
94.276565549,7040.0
94.293276818,8514.0
94.309988087,10066.0
94.326699356,11634.0
94.343410625,13052.0
94.360121894,13652.0
94.376833163,13018.0
94.393544432,12479.0
94.410255701,11300.0
94.426966970,10232.0
94.443678239,9104.0
94.460389508,8429.0
94.477100777,7654.0
94.493812046,7254.0
94.510523315,6877.0
94.527234584,6607.0
94.543945853,6472.0
94.560657122,6489.0
94.577368391,6685.0
94.594079660,7087.0
94.610790929,7638.0
94.627502198,8242.0
94.644213467,9098.0
94.660924736,9652.0
94.677636005,9435.0
94.694347274,9050.0
94.711058543,8516.0
94.727769812,7916.0
94.744481081,7345.0
94.761192349,6842.0
94.777903618,6632.0
94.794614887,6302.0
94.811326156,5832.0
94.828037425,5534.0
94.844748694,5427.0
94.861459963,5344.0
94.878171232,5358.0
94.894882501,5100.0
94.911593770,5034.0
94.928305039,4946.0
94.945016308,5051.0
94.961727577,4971.0
94.978438846,4789.0
94.995150115,4854.0
95.011861384,4938.0
95.028572653,4838.0
95.045283922,4684.0
95.061995191,4674.0
95.078706460,4715.0
95.095417729,4743.0
95.112128998,4714.0
95.128840267,4594.0
95.145551536,4620.0
95.162262805,4653.0
95.178974074,4603.0
95.195685343,4538.0
95.212396612,4518.0
95.229107881,4536.0
95.245819150,4655.0
95.262530419,4636.0
95.279241688,4571.0
95.295952957,4582.0
95.312664226,4623.0
95.329375495,4549.0
95.346086764,4495.0
95.362798033,4591.0
95.379509302,4389.0
95.396220571,4543.0
95.412931840,4527.0
95.429643109,4636.0
95.446354378,4525.0
95.463065647,4580.0
95.479776916,4571.0
95.496488185,4432.0
95.513199454,4453.0
95.529910723,4457.0
95.546621992,4535.0
95.563333260,4617.0
95.580044529,4510.0
95.596755798,4542.0
95.613467067,4509.0
95.630178336,4579.0
95.646889605,4446.0
95.663600874,4587.0
95.680312143,4407.0
95.697023412,4471.0
95.713734681,4411.0
95.730445950,4632.0
95.747157219,4658.0
95.763868488,4565.0
95.780579757,4475.0
95.797291026,4476.0
95.814002295,4442.0
95.830713564,4578.0
95.847424833,4489.0
95.864136102,4390.0
95.880847371,4590.0
95.897558640,4531.0
95.914269909,4393.0
95.930981178,4506.0
95.947692447,4453.0
95.964403716,4484.0
95.981114985,4474.0
95.997826254,4540.0
96.014537523,4436.0
96.031248792,4418.0
96.047960061,4499.0
96.064671330,4437.0
96.081382599,4437.0
96.098093868,4587.0
96.114805137,4467.0
96.131516406,4335.0
96.148227675,4348.0
96.164938944,4426.0
96.181650213,4500.0
96.198361482,4399.0
96.215072751,4492.0
96.231784020,4540.0
96.248495289,4527.0
96.265206558,4490.0
96.281917827,4447.0
96.298629096,4539.0
96.315340365,4528.0
96.332051634,4426.0
96.348762903,4464.0
96.365474171,4488.0
96.382185440,4443.0
96.398896709,4445.0
96.415607978,4428.0
96.432319247,4494.0
96.449030516,4545.0
96.465741785,4566.0
96.482453054,4460.0
96.499164323,4558.0
96.515875592,4500.0
96.532586861,4530.0
96.549298130,4509.0
96.566009399,4399.0
96.582720668,4510.0
96.599431937,4441.0
96.616143206,4451.0
96.632854475,4566.0
96.649565744,4536.0
96.666277013,4453.0
96.682988282,4492.0
96.699699551,4363.0
96.716410820,4388.0
96.733122089,4458.0
96.749833358,4421.0
96.766544627,4467.0
96.783255896,4540.0
96.799967165,4551.0
96.816678434,4474.0
96.833389703,4430.0
96.850100972,4462.0
96.866812241,4523.0
96.883523510,4509.0
96.900234779,4439.0
96.916946048,4389.0
96.933657317,4437.0
96.950368586,4413.0
96.967079855,4500.0
96.983791124,4393.0
97.000502393,4512.0
97.017213662,4413.0
97.033924931,4515.0
97.050636200,4565.0
97.067347469,4461.0
97.084058738,4398.0
97.100770007,4492.0
97.117481276,4445.0
97.134192545,4452.0
97.150903814,4464.0
97.167615083,4397.0
97.184326351,4476.0
97.201037620,4488.0
97.217748889,4430.0
97.234460158,4496.0
97.251171427,4313.0
97.267882696,4458.0
97.284593965,4430.0
97.301305234,4490.0
97.318016503,4583.0
97.334727772,4451.0
97.351439041,4422.0
97.368150310,4421.0
97.384861579,4496.0
97.401572848,4482.0
97.418284117,4516.0
97.434995386,4374.0
97.451706655,4461.0
97.468417924,4473.0
97.485129193,4437.0
97.501840462,4480.0
97.518551731,4504.0
97.535263000,4402.0
97.551974269,4623.0
97.568685538,4464.0
97.585396807,4495.0
97.602108076,4389.0
97.618819345,4436.0
97.635530614,4519.0
97.652241883,4419.0
97.668953152,4491.0
97.685664421,4492.0
97.702375690,4468.0
97.719086959,4394.0
97.735798228,4393.0
97.752509497,4378.0
97.769220766,4352.0
97.785932035,4453.0
97.802643304,4411.0
97.819354573,4467.0
97.836065842,4572.0
97.852777111,4439.0
97.869488380,4537.0
97.886199649,4505.0
97.902910918,4369.0
97.919622187,4380.0
97.936333456,4554.0
97.953044725,4376.0
97.969755994,4410.0
97.986467262,4475.0
98.003178531,4392.0
98.019889800,4407.0
98.036601069,4398.0
98.053312338,4573.0
98.070023607,4452.0
98.086734876,4513.0
98.103446145,4604.0
98.120157414,4451.0
98.136868683,4512.0
98.153579952,4429.0
98.170291221,4498.0
98.187002490,4551.0
98.203713759,4446.0
98.220425028,4379.0
98.237136297,4412.0
98.253847566,4439.0
98.270558835,4421.0
98.287270104,4544.0
98.303981373,4419.0
98.320692642,4389.0
98.337403911,4470.0
98.354115180,4409.0
98.370826449,4401.0
98.387537718,4445.0
98.404248987,4456.0
98.420960256,4390.0
98.437671525,4595.0
98.454382794,4555.0
98.471094063,4403.0
98.487805332,4517.0
98.504516601,4377.0
98.521227870,4365.0
98.537939139,4369.0
98.554650408,4504.0
98.571361677,4398.0
98.588072946,4432.0
98.604784215,4485.0
98.621495484,4615.0
98.638206753,4500.0
98.654918022,4483.0
98.671629291,4406.0
98.688340560,4471.0
98.705051829,4477.0
98.721763098,4531.0
98.738474367,4405.0
98.755185636,4536.0
98.771896905,4484.0
98.788608173,4494.0
98.805319442,4412.0
98.822030711,4426.0
98.838741980,4456.0
98.855453249,4516.0
98.872164518,4317.0
98.888875787,4517.0
98.905587056,4556.0
98.922298325,4505.0
98.939009594,4475.0
98.955720863,4434.0
98.972432132,4412.0
98.989143401,4453.0
99.005854670,4483.0
99.022565939,4385.0
99.039277208,4400.0
99.055988477,4451.0
99.072699746,4427.0
99.089411015,4451.0
99.106122284,4534.0
99.122833553,4352.0
99.139544822,4450.0
99.156256091,4380.0
99.172967360,4457.0
99.189678629,4504.0
99.206389898,4359.0
99.223101167,4394.0
99.239812436,4450.0
99.256523705,4394.0
99.273234974,4486.0
99.289946243,4508.0
99.306657512,4555.0
99.323368781,4381.0
99.340080050,4457.0
99.356791319,4592.0
99.373502588,4414.0
99.390213857,4439.0
99.406925126,4376.0
99.423636395,4472.0
99.440347664,4426.0
99.457058933,4481.0
99.473770202,4481.0
99.490481471,4595.0
99.507192740,4441.0
99.523904009,4465.0
99.540615278,4441.0
99.557326547,4417.0
99.574037816,4490.0
99.590749084,4433.0
99.607460353,4458.0
99.624171622,4598.0
99.640882891,4443.0
99.657594160,4475.0
99.674305429,4394.0
99.691016698,4477.0
99.707727967,4300.0
99.724439236,4439.0
99.741150505,4367.0
99.757861774,4512.0
99.774573043,4475.0
99.791284312,4444.0
99.807995581,4364.0
99.824706850,4416.0
99.841418119,4476.0
99.858129388,4443.0
99.874840657,4468.0
99.891551926,4435.0
99.908263195,4510.0
99.924974464,4344.0
99.941685733,4468.0
99.958397002,4341.0
99.975108271,4392.0
99.991819540,4434.0
