[Measurement conditions]
Sample identification,
Comment - 1,"finito"
Comment - 2,"Configuration=MRI TC-Basic Stage, Owner=User-1, Creation date=26-10-2009 9:18:44"
Comment - 3,"Goniometer=PW3050/60 (Theta/Theta); Minimum step size 2Theta:0.001; Minimum step size Omega:0.001"
Comment - 4,"Sample stage=MRI TC-Basic (PtRh heat strip)"
Comment - 5,"Diffractometer system=XPERT-PRO"
Comment - 6,"Measurement program=FlatStage, Owner=joana, Creation date=03-08-2011 15:43:53"
Anode material,Cu
K-Alpha1 wavelength,1.5405980
K-Alpha2 wavelength,1.5444260
Ratio K-Alpha2/K-Alpha1,0.500
Divergence slit,Fixed,0.76mm
Monochromator used,NO
Generator voltage, 45
Tube current, 40
File date and time,06/Dec/2012 23:39
Unit cell,
h k l, 0 0 0
Temperature [K],673
Scan axis,Gonio
Scan range,24.999999996,100.000175174
Scan step size,0.0167113
No. of points, 4488
Scan type,CONTINUOUS
Time per step,53.340
[Scan points]
Angle,Intensity
25.008355630,590.0
25.025066899,599.0
25.041778168,617.0
25.058489437,591.0
25.075200706,600.0
25.091911975,615.0
25.108623244,569.0
25.125334513,562.0
25.142045782,626.0
25.158757051,557.0
25.175468320,641.0
25.192179589,574.0
25.208890858,649.0
25.225602127,674.0
25.242313396,578.0
25.259024665,625.0
25.275735934,630.0
25.292447203,619.0
25.309158472,647.0
25.325869741,655.0
25.342581010,557.0
25.359292279,601.0
25.376003548,629.0
25.392714817,672.0
25.409426086,684.0
25.426137354,586.0
25.442848623,655.0
25.459559892,636.0
25.476271161,597.0
25.492982430,645.0
25.509693699,709.0
25.526404968,595.0
25.543116237,619.0
25.559827506,640.0
25.576538775,609.0
25.593250044,623.0
25.609961313,658.0
25.626672582,634.0
25.643383851,634.0
25.660095120,641.0
25.676806389,623.0
25.693517658,615.0
25.710228927,657.0
25.726940196,617.0
25.743651465,644.0
25.760362734,625.0
25.777074003,635.0
25.793785272,673.0
25.810496541,666.0
25.827207810,636.0
25.843919079,652.0
25.860630348,676.0
25.877341617,720.0
25.894052886,690.0
25.910764155,718.0
25.927475424,724.0
25.944186693,651.0
25.960897962,633.0
25.977609231,700.0
25.994320500,684.0
26.011031769,708.0
26.027743038,634.0
26.044454307,653.0
26.061165576,634.0
26.077876845,702.0
26.094588114,688.0
26.111299383,695.0
26.128010652,668.0
26.144721921,720.0
26.161433190,724.0
26.178144459,727.0
26.194855728,718.0
26.211566997,684.0
26.228278265,745.0
26.244989534,672.0
26.261700803,702.0
26.278412072,675.0
26.295123341,743.0
26.311834610,678.0
26.328545879,695.0
26.345257148,675.0
26.361968417,741.0
26.378679686,662.0
26.395390955,701.0
26.412102224,683.0
26.428813493,692.0
26.445524762,687.0
26.462236031,695.0
26.478947300,696.0
26.495658569,704.0
26.512369838,690.0
26.529081107,697.0
26.545792376,705.0
26.562503645,741.0
26.579214914,707.0
26.595926183,808.0
26.612637452,729.0
26.629348721,685.0
26.646059990,672.0
26.662771259,733.0
26.679482528,687.0
26.696193797,698.0
26.712905066,747.0
26.729616335,715.0
26.746327604,742.0
26.763038873,729.0
26.779750142,706.0
26.796461411,727.0
26.813172680,740.0
26.829883949,750.0
26.846595218,743.0
26.863306487,763.0
26.880017756,772.0
26.896729025,730.0
26.913440294,723.0
26.930151563,744.0
26.946862832,754.0
26.963574101,744.0
26.980285370,754.0
26.996996639,720.0
27.013707908,747.0
27.030419176,747.0
27.047130445,727.0
27.063841714,801.0
27.080552983,779.0
27.097264252,793.0
27.113975521,753.0
27.130686790,753.0
27.147398059,717.0
27.164109328,756.0
27.180820597,762.0
27.197531866,786.0
27.214243135,715.0
27.230954404,731.0
27.247665673,864.0
27.264376942,838.0
27.281088211,733.0
27.297799480,779.0
27.314510749,832.0
27.331222018,794.0
27.347933287,818.0
27.364644556,710.0
27.381355825,798.0
27.398067094,806.0
27.414778363,788.0
27.431489632,749.0
27.448200901,826.0
27.464912170,769.0
27.481623439,791.0
27.498334708,782.0
27.515045977,811.0
27.531757246,782.0
27.548468515,767.0
27.565179784,782.0
27.581891053,776.0
27.598602322,789.0
27.615313591,765.0
27.632024860,785.0
27.648736129,824.0
27.665447398,841.0
27.682158667,870.0
27.698869936,853.0
27.715581205,843.0
27.732292474,786.0
27.749003743,771.0
27.765715012,855.0
27.782426281,822.0
27.799137550,805.0
27.815848819,794.0
27.832560087,793.0
27.849271356,839.0
27.865982625,817.0
27.882693894,788.0
27.899405163,864.0
27.916116432,852.0
27.932827701,784.0
27.949538970,829.0
27.966250239,869.0
27.982961508,814.0
27.999672777,824.0
28.016384046,794.0
28.033095315,763.0
28.049806584,830.0
28.066517853,860.0
28.083229122,800.0
28.099940391,824.0
28.116651660,896.0
28.133362929,849.0
28.150074198,849.0
28.166785467,818.0
28.183496736,868.0
28.200208005,874.0
28.216919274,902.0
28.233630543,790.0
28.250341812,817.0
28.267053081,858.0
28.283764350,845.0
28.300475619,845.0
28.317186888,851.0
28.333898157,919.0
28.350609426,856.0
28.367320695,812.0
28.384031964,877.0
28.400743233,927.0
28.417454502,904.0
28.434165771,833.0
28.450877040,866.0
28.467588309,877.0
28.484299578,848.0
28.501010847,948.0
28.517722116,831.0
28.534433385,893.0
28.551144654,814.0
28.567855923,902.0
28.584567192,838.0
28.601278461,853.0
28.617989730,876.0
28.634700999,921.0
28.651412267,893.0
28.668123536,954.0
28.684834805,821.0
28.701546074,916.0
28.718257343,857.0
28.734968612,876.0
28.751679881,877.0
28.768391150,879.0
28.785102419,889.0
28.801813688,896.0
28.818524957,920.0
28.835236226,881.0
28.851947495,881.0
28.868658764,890.0
28.885370033,935.0
28.902081302,900.0
28.918792571,859.0
28.935503840,908.0
28.952215109,880.0
28.968926378,924.0
28.985637647,901.0
29.002348916,891.0
29.019060185,966.0
29.035771454,907.0
29.052482723,929.0
29.069193992,856.0
29.085905261,913.0
29.102616530,967.0
29.119327799,1043.0
29.136039068,955.0
29.152750337,961.0
29.169461606,887.0
29.186172875,1021.0
29.202884144,953.0
29.219595413,995.0
29.236306682,1030.0
29.253017951,963.0
29.269729220,968.0
29.286440489,1011.0
29.303151758,1007.0
29.319863027,974.0
29.336574296,1025.0
29.353285565,1003.0
29.369996834,1006.0
29.386708103,982.0
29.403419372,1024.0
29.420130641,983.0
29.436841910,890.0
29.453553178,966.0
29.470264447,1019.0
29.486975716,998.0
29.503686985,1019.0
29.520398254,1012.0
29.537109523,987.0
29.553820792,941.0
29.570532061,949.0
29.587243330,974.0
29.603954599,974.0
29.620665868,962.0
29.637377137,1005.0
29.654088406,969.0
29.670799675,978.0
29.687510944,1013.0
29.704222213,957.0
29.720933482,903.0
29.737644751,947.0
29.754356020,934.0
29.771067289,924.0
29.787778558,1023.0
29.804489827,958.0
29.821201096,927.0
29.837912365,974.0
29.854623634,983.0
29.871334903,956.0
29.888046172,941.0
29.904757441,969.0
29.921468710,971.0
29.938179979,983.0
29.954891248,941.0
29.971602517,930.0
29.988313786,1007.0
30.005025055,949.0
30.021736324,985.0
30.038447593,974.0
30.055158862,959.0
30.071870131,945.0
30.088581400,1020.0
30.105292669,1026.0
30.122003938,965.0
30.138715207,970.0
30.155426476,964.0
30.172137745,979.0
30.188849014,1006.0
30.205560283,968.0
30.222271552,988.0
30.238982821,1010.0
30.255694089,1009.0
30.272405358,938.0
30.289116627,1003.0
30.305827896,981.0
30.322539165,957.0
30.339250434,1024.0
30.355961703,1002.0
30.372672972,986.0
30.389384241,966.0
30.406095510,1009.0
30.422806779,992.0
30.439518048,947.0
30.456229317,1056.0
30.472940586,1003.0
30.489651855,1041.0
30.506363124,1031.0
30.523074393,1079.0
30.539785662,1052.0
30.556496931,1006.0
30.573208200,1037.0
30.589919469,1004.0
30.606630738,1027.0
30.623342007,1025.0
30.640053276,984.0
30.656764545,1025.0
30.673475814,969.0
30.690187083,1044.0
30.706898352,1008.0
30.723609621,1017.0
30.740320890,1021.0
30.757032159,975.0
30.773743428,1064.0
30.790454697,1017.0
30.807165966,1031.0
30.823877235,1043.0
30.840588504,1072.0
30.857299773,1068.0
30.874011042,1078.0
30.890722311,1032.0
30.907433580,1047.0
30.924144849,1035.0
30.940856118,1023.0
30.957567387,1018.0
30.974278656,1022.0
30.990989925,1056.0
31.007701194,1041.0
31.024412463,1057.0
31.041123732,1011.0
31.057835000,1067.0
31.074546269,992.0
31.091257538,1043.0
31.107968807,1068.0
31.124680076,1101.0
31.141391345,1055.0
31.158102614,1073.0
31.174813883,1022.0
31.191525152,1022.0
31.208236421,1033.0
31.224947690,1041.0
31.241658959,1086.0
31.258370228,954.0
31.275081497,1025.0
31.291792766,1048.0
31.308504035,1042.0
31.325215304,1126.0
31.341926573,1074.0
31.358637842,1143.0
31.375349111,1062.0
31.392060380,1041.0
31.408771649,1014.0
31.425482918,1049.0
31.442194187,1121.0
31.458905456,1066.0
31.475616725,1029.0
31.492327994,1039.0
31.509039263,1119.0
31.525750532,1089.0
31.542461801,1066.0
31.559173070,1068.0
31.575884339,1091.0
31.592595608,1111.0
31.609306877,1047.0
31.626018146,1016.0
31.642729415,1049.0
31.659440684,1087.0
31.676151953,1015.0
31.692863222,1049.0
31.709574491,1064.0
31.726285760,1084.0
31.742997029,1129.0
31.759708298,1153.0
31.776419567,1065.0
31.793130836,1124.0
31.809842105,1064.0
31.826553374,1174.0
31.843264643,1103.0
31.859975912,1123.0
31.876687180,1096.0
31.893398449,1060.0
31.910109718,1095.0
31.926820987,1136.0
31.943532256,1140.0
31.960243525,1091.0
31.976954794,1158.0
31.993666063,1141.0
32.010377332,1063.0
32.027088601,1130.0
32.043799870,1178.0
32.060511139,1084.0
32.077222408,1133.0
32.093933677,1096.0
32.110644946,1120.0
32.127356215,1126.0
32.144067484,1128.0
32.160778753,1190.0
32.177490022,1163.0
32.194201291,1134.0
32.210912560,1204.0
32.227623829,1082.0
32.244335098,1171.0
32.261046367,1116.0
32.277757636,1158.0
32.294468905,1108.0
32.311180174,1153.0
32.327891443,1113.0
32.344602712,1172.0
32.361313981,1162.0
32.378025250,1103.0
32.394736519,1104.0
32.411447788,1184.0
32.428159057,1133.0
32.444870326,1105.0
32.461581595,1167.0
32.478292864,1141.0
32.495004133,1142.0
32.511715402,1116.0
32.528426671,1123.0
32.545137940,1169.0
32.561849209,1141.0
32.578560478,1127.0
32.595271747,1167.0
32.611983016,1180.0
32.628694285,1204.0
32.645405554,1167.0
32.662116823,1206.0
32.678828091,1124.0
32.695539360,1124.0
32.712250629,1211.0
32.728961898,1149.0
32.745673167,1163.0
32.762384436,1123.0
32.779095705,1122.0
32.795806974,1138.0
32.812518243,1132.0
32.829229512,1180.0
32.845940781,1147.0
32.862652050,1219.0
32.879363319,1167.0
32.896074588,1166.0
32.912785857,1181.0
32.929497126,1147.0
32.946208395,1162.0
32.962919664,1219.0
32.979630933,1180.0
32.996342202,1173.0
33.013053471,1159.0
33.029764740,1208.0
33.046476009,1198.0
33.063187278,1261.0
33.079898547,1200.0
33.096609816,1210.0
33.113321085,1199.0
33.130032354,1150.0
33.146743623,1203.0
33.163454892,1201.0
33.180166161,1209.0
33.196877430,1166.0
33.213588699,1134.0
33.230299968,1195.0
33.247011237,1171.0
33.263722506,1140.0
33.280433775,1228.0
33.297145044,1254.0
33.313856313,1167.0
33.330567582,1171.0
33.347278851,1225.0
33.363990120,1167.0
33.380701389,1156.0
33.397412658,1205.0
33.414123927,1201.0
33.430835196,1141.0
33.447546465,1169.0
33.464257734,1178.0
33.480969002,1209.0
33.497680271,1239.0
33.514391540,1219.0
33.531102809,1214.0
33.547814078,1211.0
33.564525347,1225.0
33.581236616,1257.0
33.597947885,1238.0
33.614659154,1217.0
33.631370423,1185.0
33.648081692,1245.0
33.664792961,1203.0
33.681504230,1248.0
33.698215499,1194.0
33.714926768,1277.0
33.731638037,1216.0
33.748349306,1154.0
33.765060575,1235.0
33.781771844,1223.0
33.798483113,1144.0
33.815194382,1328.0
33.831905651,1179.0
33.848616920,1215.0
33.865328189,1256.0
33.882039458,1310.0
33.898750727,1208.0
33.915461996,1160.0
33.932173265,1210.0
33.948884534,1165.0
33.965595803,1196.0
33.982307072,1252.0
33.999018341,1242.0
34.015729610,1270.0
34.032440879,1275.0
34.049152148,1139.0
34.065863417,1222.0
34.082574686,1215.0
34.099285955,1240.0
34.115997224,1221.0
34.132708493,1216.0
34.149419762,1226.0
34.166131031,1242.0
34.182842300,1267.0
34.199553569,1214.0
34.216264838,1310.0
34.232976107,1294.0
34.249687376,1283.0
34.266398645,1233.0
34.283109913,1281.0
34.299821182,1198.0
34.316532451,1296.0
34.333243720,1269.0
34.349954989,1280.0
34.366666258,1202.0
34.383377527,1309.0
34.400088796,1260.0
34.416800065,1244.0
34.433511334,1232.0
34.450222603,1240.0
34.466933872,1281.0
34.483645141,1266.0
34.500356410,1291.0
34.517067679,1322.0
34.533778948,1248.0
34.550490217,1290.0
34.567201486,1278.0
34.583912755,1312.0
34.600624024,1198.0
34.617335293,1296.0
34.634046562,1332.0
34.650757831,1268.0
34.667469100,1291.0
34.684180369,1305.0
34.700891638,1230.0
34.717602907,1275.0
34.734314176,1324.0
34.751025445,1248.0
34.767736714,1322.0
34.784447983,1231.0
34.801159252,1289.0
34.817870521,1318.0
34.834581790,1296.0
34.851293059,1248.0
34.868004328,1318.0
34.884715597,1303.0
34.901426866,1273.0
34.918138135,1292.0
34.934849404,1305.0
34.951560673,1359.0
34.968271942,1347.0
34.984983211,1364.0
35.001694480,1326.0
35.018405749,1295.0
35.035117018,1371.0
35.051828287,1366.0
35.068539556,1287.0
35.085250825,1404.0
35.101962093,1401.0
35.118673362,1357.0
35.135384631,1380.0
35.152095900,1407.0
35.168807169,1493.0
35.185518438,1411.0
35.202229707,1510.0
35.218940976,1427.0
35.235652245,1499.0
35.252363514,1445.0
35.269074783,1525.0
35.285786052,1449.0
35.302497321,1486.0
35.319208590,1475.0
35.335919859,1501.0
35.352631128,1477.0
35.369342397,1498.0
35.386053666,1512.0
35.402764935,1545.0
35.419476204,1416.0
35.436187473,1490.0
35.452898742,1498.0
35.469610011,1482.0
35.486321280,1462.0
35.503032549,1530.0
35.519743818,1412.0
35.536455087,1400.0
35.553166356,1493.0
35.569877625,1476.0
35.586588894,1425.0
35.603300163,1413.0
35.620011432,1439.0
35.636722701,1493.0
35.653433970,1481.0
35.670145239,1430.0
35.686856508,1456.0
35.703567777,1407.0
35.720279046,1515.0
35.736990315,1483.0
35.753701584,1523.0
35.770412853,1559.0
35.787124122,1561.0
35.803835391,1561.0
35.820546660,1622.0
35.837257929,1616.0
35.853969198,1697.0
35.870680467,1646.0
35.887391736,1759.0
35.904103004,1794.0
35.920814273,1868.0
35.937525542,1912.0
35.954236811,2028.0
35.970948080,1997.0
35.987659349,2125.0
36.004370618,2213.0
36.021081887,2346.0
36.037793156,2352.0
36.054504425,2489.0
36.071215694,2622.0
36.087926963,2601.0
36.104638232,2689.0
36.121349501,2802.0
36.138060770,2872.0
36.154772039,2953.0
36.171483308,2775.0
36.188194577,2935.0
36.204905846,2820.0
36.221617115,2820.0
36.238328384,2858.0
36.255039653,2806.0
36.271750922,2701.0
36.288462191,2677.0
36.305173460,2632.0
36.321884729,2506.0
36.338595998,2442.0
36.355307267,2425.0
36.372018536,2309.0
36.388729805,2292.0
36.405441074,2170.0
36.422152343,2125.0
36.438863612,2117.0
36.455574881,2053.0
36.472286150,1968.0
36.488997419,1928.0
36.505708688,1797.0
36.522419957,1832.0
36.539131226,1875.0
36.555842495,1799.0
36.572553764,1749.0
36.589265033,1680.0
36.605976302,1616.0
36.622687571,1613.0
36.639398840,1649.0
36.656110109,1573.0
36.672821378,1561.0
36.689532647,1632.0
36.706243915,1557.0
36.722955184,1510.0
36.739666453,1587.0
36.756377722,1525.0
36.773088991,1496.0
36.789800260,1528.0
36.806511529,1483.0
36.823222798,1502.0
36.839934067,1470.0
36.856645336,1483.0
36.873356605,1495.0
36.890067874,1456.0
36.906779143,1433.0
36.923490412,1473.0
36.940201681,1472.0
36.956912950,1505.0
36.973624219,1557.0
36.990335488,1436.0
37.007046757,1478.0
37.023758026,1377.0
37.040469295,1452.0
37.057180564,1421.0
37.073891833,1515.0
37.090603102,1456.0
37.107314371,1442.0
37.124025640,1528.0
37.140736909,1511.0
37.157448178,1481.0
37.174159447,1417.0
37.190870716,1468.0
37.207581985,1451.0
37.224293254,1428.0
37.241004523,1492.0
37.257715792,1473.0
37.274427061,1443.0
37.291138330,1469.0
37.307849599,1476.0
37.324560868,1495.0
37.341272137,1479.0
37.357983406,1466.0
37.374694675,1490.0
37.391405944,1483.0
37.408117213,1480.0
37.424828482,1481.0
37.441539751,1482.0
37.458251020,1517.0
37.474962289,1470.0
37.491673558,1499.0
37.508384826,1571.0
37.525096095,1406.0
37.541807364,1514.0
37.558518633,1518.0
37.575229902,1504.0
37.591941171,1419.0
37.608652440,1461.0
37.625363709,1533.0
37.642074978,1519.0
37.658786247,1520.0
37.675497516,1442.0
37.692208785,1480.0
37.708920054,1482.0
37.725631323,1493.0
37.742342592,1534.0
37.759053861,1607.0
37.775765130,1558.0
37.792476399,1571.0
37.809187668,1491.0
37.825898937,1523.0
37.842610206,1578.0
37.859321475,1449.0
37.876032744,1435.0
37.892744013,1455.0
37.909455282,1526.0
37.926166551,1520.0
37.942877820,1459.0
37.959589089,1478.0
37.976300358,1507.0
37.993011627,1582.0
38.009722896,1472.0
38.026434165,1536.0
38.043145434,1451.0
38.059856703,1608.0
38.076567972,1510.0
38.093279241,1562.0
38.109990510,1560.0
38.126701779,1570.0
38.143413048,1532.0
38.160124317,1532.0
38.176835586,1521.0
38.193546855,1618.0
38.210258124,1591.0
38.226969393,1581.0
38.243680662,1670.0
38.260391931,1537.0
38.277103200,1637.0
38.293814469,1633.0
38.310525738,1716.0
38.327237006,1611.0
38.343948275,1665.0
38.360659544,1647.0
38.377370813,1624.0
38.394082082,1674.0
38.410793351,1695.0
38.427504620,1603.0
38.444215889,1761.0
38.460927158,1678.0
38.477638427,1617.0
38.494349696,1653.0
38.511060965,1661.0
38.527772234,1737.0
38.544483503,1772.0
38.561194772,1838.0
38.577906041,1897.0
38.594617310,1886.0
38.611328579,1789.0
38.628039848,1726.0
38.644751117,1716.0
38.661462386,1755.0
38.678173655,1685.0
38.694884924,1635.0
38.711596193,1638.0
38.728307462,1674.0
38.745018731,1638.0
38.761730000,1629.0
38.778441269,1645.0
38.795152538,1618.0
38.811863807,1637.0
38.828575076,1653.0
38.845286345,1667.0
38.861997614,1632.0
38.878708883,1658.0
38.895420152,1573.0
38.912131421,1652.0
38.928842690,1617.0
38.945553959,1562.0
38.962265228,1587.0
38.978976497,1587.0
38.995687766,1586.0
39.012399035,1569.0
39.029110304,1600.0
39.045821573,1520.0
39.062532842,1591.0
39.079244111,1623.0
39.095955380,1624.0
39.112666649,1566.0
39.129377917,1605.0
39.146089186,1565.0
39.162800455,1558.0
39.179511724,1594.0
39.196222993,1518.0
39.212934262,1640.0
39.229645531,1593.0
39.246356800,1557.0
39.263068069,1561.0
39.279779338,1623.0
39.296490607,1665.0
39.313201876,1541.0
39.329913145,1569.0
39.346624414,1566.0
39.363335683,1563.0
39.380046952,1552.0
39.396758221,1593.0
39.413469490,1573.0
39.430180759,1537.0
39.446892028,1561.0
39.463603297,1584.0
39.480314566,1588.0
39.497025835,1569.0
39.513737104,1644.0
39.530448373,1612.0
39.547159642,1673.0
39.563870911,1654.0
39.580582180,1652.0
39.597293449,1684.0
39.614004718,1677.0
39.630715987,1727.0
39.647427256,1736.0
39.664138525,1655.0
39.680849794,1831.0
39.697561063,1730.0
39.714272332,1790.0
39.730983601,1904.0
39.747694870,2039.0
39.764406139,2021.0
39.781117408,2069.0
39.797828677,2042.0
39.814539946,2262.0
39.831251215,2188.0
39.847962484,2030.0
39.864673753,2008.0
39.881385022,1903.0
39.898096291,1848.0
39.914807560,1851.0
39.931518828,1768.0
39.948230097,1730.0
39.964941366,1694.0
39.981652635,1683.0
39.998363904,1707.0
40.015075173,1627.0
40.031786442,1644.0
40.048497711,1625.0
40.065208980,1652.0
40.081920249,1668.0
40.098631518,1692.0
40.115342787,1641.0
40.132054056,1641.0
40.148765325,1620.0
40.165476594,1641.0
40.182187863,1584.0
40.198899132,1684.0
40.215610401,1560.0
40.232321670,1645.0
40.249032939,1658.0
40.265744208,1665.0
40.282455477,1668.0
40.299166746,1619.0
40.315878015,1687.0
40.332589284,1602.0
40.349300553,1651.0
40.366011822,1682.0
40.382723091,1570.0
40.399434360,1680.0
40.416145629,1592.0
40.432856898,1631.0
40.449568167,1635.0
40.466279436,1686.0
40.482990705,1613.0
40.499701974,1622.0
40.516413243,1661.0
40.533124512,1640.0
40.549835781,1609.0
40.566547050,1650.0
40.583258319,1649.0
40.599969588,1600.0
40.616680857,1650.0
40.633392126,1652.0
40.650103395,1654.0
40.666814664,1751.0
40.683525933,1596.0
40.700237202,1701.0
40.716948471,1562.0
40.733659739,1746.0
40.750371008,1713.0
40.767082277,1671.0
40.783793546,1689.0
40.800504815,1722.0
40.817216084,1638.0
40.833927353,1653.0
40.850638622,1638.0
40.867349891,1664.0
40.884061160,1639.0
40.900772429,1706.0
40.917483698,1639.0
40.934194967,1799.0
40.950906236,1726.0
40.967617505,1728.0
40.984328774,1740.0
41.001040043,1721.0
41.017751312,1720.0
41.034462581,1678.0
41.051173850,1686.0
41.067885119,1794.0
41.084596388,1756.0
41.101307657,1718.0
41.118018926,1735.0
41.134730195,1802.0
41.151441464,1710.0
41.168152733,1727.0
41.184864002,1798.0
41.201575271,1730.0
41.218286540,1782.0
41.234997809,1740.0
41.251709078,1735.0
41.268420347,1781.0
41.285131616,1801.0
41.301842885,1861.0
41.318554154,1840.0
41.335265423,1850.0
41.351976692,1843.0
41.368687961,1851.0
41.385399230,1897.0
41.402110499,1922.0
41.418821768,2080.0
41.435533037,1977.0
41.452244306,2014.0
41.468955575,2018.0
41.485666844,2062.0
41.502378113,2110.0
41.519089382,2053.0
41.535800651,2167.0
41.552511919,2202.0
41.569223188,2153.0
41.585934457,2166.0
41.602645726,2146.0
41.619356995,2206.0
41.636068264,2216.0
41.652779533,2257.0
41.669490802,2276.0
41.686202071,2255.0
41.702913340,2293.0
41.719624609,2320.0
41.736335878,2241.0
41.753047147,2310.0
41.769758416,2384.0
41.786469685,2366.0
41.803180954,2292.0
41.819892223,2230.0
41.836603492,2410.0
41.853314761,2341.0
41.870026030,2378.0
41.886737299,2362.0
41.903448568,2375.0
41.920159837,2312.0
41.936871106,2328.0
41.953582375,2412.0
41.970293644,2379.0
41.987004913,2489.0
42.003716182,2340.0
42.020427451,2387.0
42.037138720,2322.0
42.053849989,2380.0
42.070561258,2366.0
42.087272527,2256.0
42.103983796,2382.0
42.120695065,2280.0
42.137406334,2313.0
42.154117603,2242.0
42.170828872,2327.0
42.187540141,2327.0
42.204251410,2402.0
42.220962679,2247.0
42.237673948,2178.0
42.254385217,2302.0
42.271096486,2309.0
42.287807755,2241.0
42.304519024,2308.0
42.321230293,2312.0
42.337941562,2370.0
42.354652830,2268.0
42.371364099,2250.0
42.388075368,2292.0
42.404786637,2310.0
42.421497906,2323.0
42.438209175,2347.0
42.454920444,2248.0
42.471631713,2262.0
42.488342982,2282.0
42.505054251,2361.0
42.521765520,2395.0
42.538476789,2227.0
42.555188058,2363.0
42.571899327,2480.0
42.588610596,2519.0
42.605321865,2550.0
42.622033134,2785.0
42.638744403,2984.0
42.655455672,3257.0
42.672166941,3413.0
42.688878210,3644.0
42.705589479,3833.0
42.722300748,4103.0
42.739012017,4346.0
42.755723286,4619.0
42.772434555,5184.0
42.789145824,5924.0
42.805857093,7760.0
42.822568362,10631.0
42.839279631,15715.0
42.855990900,24980.0
42.872702169,41896.0
42.889413438,66596.0
42.906124707,85952.0
42.922835976,81948.0
42.939547245,62019.0
42.956258514,46524.0
42.972969783,40515.0
42.989681052,43514.0
43.006392321,49972.0
43.023103590,53714.0
43.039814859,46496.0
43.056526128,34085.0
43.073237397,24510.0
43.089948666,18116.0
43.106659935,14735.0
43.123371204,11781.0
43.140082473,9649.0
43.156793741,8261.0
43.173505010,7181.0
43.190216279,6162.0
43.206927548,5382.0
43.223638817,4946.0
43.240350086,4341.0
43.257061355,4012.0
43.273772624,3824.0
43.290483893,3502.0
43.307195162,3291.0
43.323906431,3203.0
43.340617700,3132.0
43.357328969,2865.0
43.374040238,2894.0
43.390751507,2807.0
43.407462776,2649.0
43.424174045,2647.0
43.440885314,2622.0
43.457596583,2554.0
43.474307852,2517.0
43.491019121,2550.0
43.507730390,2479.0
43.524441659,2388.0
43.541152928,2412.0
43.557864197,2454.0
43.574575466,2388.0
43.591286735,2335.0
43.607998004,2350.0
43.624709273,2386.0
43.641420542,2347.0
43.658131811,2312.0
43.674843080,2301.0
43.691554349,2295.0
43.708265618,2261.0
43.724976887,2260.0
43.741688156,2280.0
43.758399425,2324.0
43.775110694,2248.0
43.791821963,2247.0
43.808533232,2196.0
43.825244501,2193.0
43.841955770,2294.0
43.858667039,2193.0
43.875378308,2171.0
43.892089577,2198.0
43.908800846,2074.0
43.925512115,2135.0
43.942223384,2249.0
43.958934652,2178.0
43.975645921,2201.0
43.992357190,2198.0
44.009068459,2150.0
44.025779728,2030.0
44.042490997,2199.0
44.059202266,2147.0
44.075913535,2158.0
44.092624804,2131.0
44.109336073,2116.0
44.126047342,2055.0
44.142758611,2070.0
44.159469880,2145.0
44.176181149,2103.0
44.192892418,2111.0
44.209603687,2083.0
44.226314956,2119.0
44.243026225,2123.0
44.259737494,2114.0
44.276448763,2047.0
44.293160032,2102.0
44.309871301,2170.0
44.326582570,2101.0
44.343293839,2111.0
44.360005108,2122.0
44.376716377,2197.0
44.393427646,2157.0
44.410138915,2107.0
44.426850184,2163.0
44.443561453,2153.0
44.460272722,2128.0
44.476983991,2126.0
44.493695260,2122.0
44.510406529,2142.0
44.527117798,2142.0
44.543829067,2165.0
44.560540336,2098.0
44.577251605,2115.0
44.593962874,2173.0
44.610674143,2165.0
44.627385412,2244.0
44.644096681,2230.0
44.660807950,2283.0
44.677519219,2152.0
44.694230488,2134.0
44.710941757,2136.0
44.727653026,2139.0
44.744364295,2281.0
44.761075564,2215.0
44.777786832,2237.0
44.794498101,2139.0
44.811209370,2164.0
44.827920639,2162.0
44.844631908,2283.0
44.861343177,2303.0
44.878054446,2292.0
44.894765715,2295.0
44.911476984,2301.0
44.928188253,2150.0
44.944899522,2235.0
44.961610791,2221.0
44.978322060,2208.0
44.995033329,2181.0
45.011744598,2207.0
45.028455867,2084.0
45.045167136,2188.0
45.061878405,2038.0
45.078589674,2138.0
45.095300943,2167.0
45.112012212,2237.0
45.128723481,2159.0
45.145434750,2093.0
45.162146019,2089.0
45.178857288,1965.0
45.195568557,2136.0
45.212279826,2073.0
45.228991095,2125.0
45.245702364,2094.0
45.262413633,2169.0
45.279124902,2124.0
45.295836171,2054.0
45.312547440,2065.0
45.329258709,2048.0
45.345969978,2021.0
45.362681247,2067.0
45.379392516,2084.0
45.396103785,2007.0
45.412815054,2135.0
45.429526323,2090.0
45.446237592,2096.0
45.462948861,1994.0
45.479660130,2087.0
45.496371399,2042.0
45.513082668,2073.0
45.529793937,2109.0
45.546505206,2100.0
45.563216475,1961.0
45.579927743,2100.0
45.596639012,2106.0
45.613350281,2113.0
45.630061550,2120.0
45.646772819,2116.0
45.663484088,2108.0
45.680195357,2128.0
45.696906626,2175.0
45.713617895,2158.0
45.730329164,2160.0
45.747040433,2149.0
45.763751702,2173.0
45.780462971,2078.0
45.797174240,2216.0
45.813885509,2255.0
45.830596778,2151.0
45.847308047,2219.0
45.864019316,2191.0
45.880730585,2205.0
45.897441854,2233.0
45.914153123,2223.0
45.930864392,2166.0
45.947575661,2194.0
45.964286930,2224.0
45.980998199,2315.0
45.997709468,2348.0
46.014420737,2357.0
46.031132006,2378.0
46.047843275,2467.0
46.064554544,2495.0
46.081265813,2490.0
46.097977082,2471.0
46.114688351,2503.0
46.131399620,2731.0
46.148110889,2664.0
46.164822158,2767.0
46.181533427,2849.0
46.198244696,3056.0
46.214955965,3338.0
46.231667234,3555.0
46.248378503,4170.0
46.265089772,4784.0
46.281801041,6007.0
46.298512310,6875.0
46.315223579,8082.0
46.331934848,8466.0
46.348646117,8038.0
46.365357386,7074.0
46.382068654,6980.0
46.398779923,6287.0
46.415491192,5409.0
46.432202461,5317.0
46.448913730,5368.0
46.465624999,5433.0
46.482336268,4785.0
46.499047537,4286.0
46.515758806,3786.0
46.532470075,3123.0
46.549181344,2659.0
46.565892613,2443.0
46.582603882,2353.0
46.599315151,2410.0
46.616026420,2266.0
46.632737689,2373.0
46.649448958,2267.0
46.666160227,2338.0
46.682871496,2345.0
46.699582765,2263.0
46.716294034,2333.0
46.733005303,2251.0
46.749716572,2161.0
46.766427841,2278.0
46.783139110,2257.0
46.799850379,2257.0
46.816561648,2156.0
46.833272917,2115.0
46.849984186,2165.0
46.866695455,2175.0
46.883406724,2100.0
46.900117993,2186.0
46.916829262,2118.0
46.933540531,2173.0
46.950251800,2109.0
46.966963069,2102.0
46.983674338,2200.0
47.000385607,2130.0
47.017096876,2105.0
47.033808145,2041.0
47.050519414,2102.0
47.067230683,2061.0
47.083941952,2118.0
47.100653221,2217.0
47.117364490,2081.0
47.134075759,2083.0
47.150787028,2111.0
47.167498297,2063.0
47.184209565,2035.0
47.200920834,2134.0
47.217632103,2092.0
47.234343372,2043.0
47.251054641,2102.0
47.267765910,2128.0
47.284477179,2120.0
47.301188448,2234.0
47.317899717,2111.0
47.334610986,2144.0
47.351322255,2192.0
47.368033524,2113.0
47.384744793,2121.0
47.401456062,2087.0
47.418167331,2128.0
47.434878600,2109.0
47.451589869,2115.0
47.468301138,2123.0
47.485012407,2126.0
47.501723676,2123.0
47.518434945,2143.0
47.535146214,2205.0
47.551857483,2170.0
47.568568752,2071.0
47.585280021,2205.0
47.601991290,2124.0
47.618702559,2012.0
47.635413828,2039.0
47.652125097,2107.0
47.668836366,2086.0
47.685547635,2194.0
47.702258904,2082.0
47.718970173,2109.0
47.735681442,2130.0
47.752392711,2160.0
47.769103980,2123.0
47.785815249,2154.0
47.802526518,2118.0
47.819237787,2169.0
47.835949056,2122.0
47.852660325,2198.0
47.869371594,2123.0
47.886082863,2151.0
47.902794132,2128.0
47.919505401,2184.0
47.936216670,2153.0
47.952927939,2153.0
47.969639208,2186.0
47.986350477,2087.0
48.003061745,2153.0
48.019773014,2151.0
48.036484283,2067.0
48.053195552,2102.0
48.069906821,2117.0
48.086618090,2088.0
48.103329359,2162.0
48.120040628,2119.0
48.136751897,2075.0
48.153463166,2120.0
48.170174435,2188.0
48.186885704,2289.0
48.203596973,2263.0
48.220308242,2324.0
48.237019511,2277.0
48.253730780,2310.0
48.270442049,2249.0
48.287153318,2273.0
48.303864587,2172.0
48.320575856,2327.0
48.337287125,2267.0
48.353998394,2294.0
48.370709663,2394.0
48.387420932,2314.0
48.404132201,2240.0
48.420843470,2307.0
48.437554739,2267.0
48.454266008,2429.0
48.470977277,2318.0
48.487688546,2373.0
48.504399815,2389.0
48.521111084,2275.0
48.537822353,2334.0
48.554533622,2327.0
48.571244891,2396.0
48.587956160,2390.0
48.604667429,2437.0
48.621378698,2409.0
48.638089967,2334.0
48.654801236,2321.0
48.671512505,2331.0
48.688223774,2297.0
48.704935043,2381.0
48.721646312,2293.0
48.738357581,2326.0
48.755068850,2315.0
48.771780119,2320.0
48.788491388,2293.0
48.805202656,2303.0
48.821913925,2328.0
48.838625194,2362.0
48.855336463,2423.0
48.872047732,2430.0
48.888759001,2375.0
48.905470270,2352.0
48.922181539,2292.0
48.938892808,2398.0
48.955604077,2331.0
48.972315346,2336.0
48.989026615,2313.0
49.005737884,2340.0
49.022449153,2246.0
49.039160422,2313.0
49.055871691,2385.0
49.072582960,2349.0
49.089294229,2234.0
49.106005498,2351.0
49.122716767,2407.0
49.139428036,2293.0
49.156139305,2364.0
49.172850574,2366.0
49.189561843,2273.0
49.206273112,2312.0
49.222984381,2306.0
49.239695650,2398.0
49.256406919,2293.0
49.273118188,2402.0
49.289829457,2401.0
49.306540726,2490.0
49.323251995,2335.0
49.339963264,2443.0
49.356674533,2310.0
49.373385802,2419.0
49.390097071,2398.0
49.406808340,2406.0
49.423519609,2468.0
49.440230878,2443.0
49.456942147,2399.0
49.473653416,2496.0
49.490364685,2451.0
49.507075954,2444.0
49.523787223,2525.0
49.540498492,2451.0
49.557209761,2527.0
49.573921030,2461.0
49.590632299,2432.0
49.607343567,2544.0
49.624054836,2571.0
49.640766105,2575.0
49.657477374,2679.0
49.674188643,2709.0
49.690899912,2882.0
49.707611181,2988.0
49.724322450,3106.0
49.741033719,3332.0
49.757744988,3702.0
49.774456257,3665.0
49.791167526,3750.0
49.807878795,3969.0
49.824590064,4231.0
49.841301333,4638.0
49.858012602,4989.0
49.874723871,5565.0
49.891435140,6999.0
49.908146409,9418.0
49.924857678,13566.0
49.941568947,20655.0
49.958280216,32405.0
49.974991485,48852.0
49.991702754,63046.0
50.008414023,66853.0
50.025125292,59602.0
50.041836561,45767.0
50.058547830,34314.0
50.075259099,28662.0
50.091970368,28677.0
50.108681637,33179.0
50.125392906,37464.0
50.142104175,38047.0
50.158815444,32878.0
50.175526713,25211.0
50.192237982,18321.0
50.208949251,13589.0
50.225660520,10011.0
50.242371789,8018.0
50.259083058,6734.0
50.275794327,5830.0
50.292505596,5340.0
50.309216865,4829.0
50.325928134,4509.0
50.342639403,4338.0
50.359350672,4030.0
50.376061941,3850.0
50.392773210,3555.0
50.409484478,3547.0
50.426195747,3477.0
50.442907016,3394.0
50.459618285,3302.0
50.476329554,3159.0
50.493040823,3221.0
50.509752092,3288.0
50.526463361,3130.0
50.543174630,3073.0
50.559885899,2996.0
50.576597168,2931.0
50.593308437,2912.0
50.610019706,2968.0
50.626730975,2861.0
50.643442244,2774.0
50.660153513,2804.0
50.676864782,2813.0
50.693576051,2670.0
50.710287320,2704.0
50.726998589,2611.0
50.743709858,2585.0
50.760421127,2644.0
50.777132396,2584.0
50.793843665,2472.0
50.810554934,2398.0
50.827266203,2507.0
50.843977472,2435.0
50.860688741,2477.0
50.877400010,2496.0
50.894111279,2479.0
50.910822548,2443.0
50.927533817,2379.0
50.944245086,2374.0
50.960956355,2362.0
50.977667624,2460.0
50.994378893,2284.0
51.011090162,2449.0
51.027801431,2318.0
51.044512700,2333.0
51.061223969,2271.0
51.077935238,2294.0
51.094646507,2320.0
51.111357776,2302.0
51.128069045,2390.0
51.144780314,2337.0
51.161491583,2353.0
51.178202852,2305.0
51.194914121,2265.0
51.211625390,2326.0
51.228336658,2295.0
51.245047927,2377.0
51.261759196,2415.0
51.278470465,2324.0
51.295181734,2292.0
51.311893003,2264.0
51.328604272,2245.0
51.345315541,2304.0
51.362026810,2311.0
51.378738079,2350.0
51.395449348,2313.0
51.412160617,2332.0
51.428871886,2318.0
51.445583155,2358.0
51.462294424,2282.0
51.479005693,2387.0
51.495716962,2361.0
51.512428231,2498.0
51.529139500,2489.0
51.545850769,2556.0
51.562562038,2420.0
51.579273307,2372.0
51.595984576,2416.0
51.612695845,2408.0
51.629407114,2374.0
51.646118383,2304.0
51.662829652,2387.0
51.679540921,2397.0
51.696252190,2358.0
51.712963459,2250.0
51.729674728,2376.0
51.746385997,2296.0
51.763097266,2363.0
51.779808535,2261.0
51.796519804,2329.0
51.813231073,2295.0
51.829942342,2358.0
51.846653611,2333.0
51.863364880,2432.0
51.880076149,2339.0
51.896787418,2363.0
51.913498687,2306.0
51.930209956,2352.0
51.946921225,2323.0
51.963632494,2367.0
51.980343763,2316.0
51.997055032,2282.0
52.013766301,2295.0
52.030477569,2325.0
52.047188838,2256.0
52.063900107,2391.0
52.080611376,2355.0
52.097322645,2252.0
52.114033914,2310.0
52.130745183,2318.0
52.147456452,2307.0
52.164167721,2180.0
52.180878990,2419.0
52.197590259,2244.0
52.214301528,2348.0
52.231012797,2349.0
52.247724066,2337.0
52.264435335,2303.0
52.281146604,2259.0
52.297857873,2364.0
52.314569142,2280.0
52.331280411,2328.0
52.347991680,2279.0
52.364702949,2261.0
52.381414218,2213.0
52.398125487,2362.0
52.414836756,2339.0
52.431548025,2316.0
52.448259294,2269.0
52.464970563,2281.0
52.481681832,2354.0
52.498393101,2223.0
52.515104370,2267.0
52.531815639,2301.0
52.548526908,2197.0
52.565238177,2253.0
52.581949446,2319.0
52.598660715,2328.0
52.615371984,2324.0
52.632083253,2234.0
52.648794522,2259.0
52.665505791,2309.0
52.682217060,2246.0
52.698928329,2275.0
52.715639598,2312.0
52.732350867,2257.0
52.749062136,2354.0
52.765773405,2317.0
52.782484674,2257.0
52.799195943,2348.0
52.815907212,2277.0
52.832618480,2279.0
52.849329749,2315.0
52.866041018,2244.0
52.882752287,2273.0
52.899463556,2289.0
52.916174825,2328.0
52.932886094,2193.0
52.949597363,2295.0
52.966308632,2255.0
52.983019901,2312.0
52.999731170,2294.0
53.016442439,2311.0
53.033153708,2326.0
53.049864977,2228.0
53.066576246,2328.0
53.083287515,2251.0
53.099998784,2280.0
53.116710053,2371.0
53.133421322,2296.0
53.150132591,2332.0
53.166843860,2291.0
53.183555129,2243.0
53.200266398,2307.0
53.216977667,2365.0
53.233688936,2308.0
53.250400205,2307.0
53.267111474,2252.0
53.283822743,2309.0
53.300534012,2318.0
53.317245281,2225.0
53.333956550,2266.0
53.350667819,2311.0
53.367379088,2277.0
53.384090357,2258.0
53.400801626,2266.0
53.417512895,2325.0
53.434224164,2326.0
53.450935433,2192.0
53.467646702,2382.0
53.484357971,2318.0
53.501069240,2349.0
53.517780509,2351.0
53.534491778,2272.0
53.551203047,2242.0
53.567914316,2275.0
53.584625585,2226.0
53.601336854,2344.0
53.618048123,2262.0
53.634759391,2269.0
53.651470660,2148.0
53.668181929,2332.0
53.684893198,2270.0
53.701604467,2219.0
53.718315736,2374.0
53.735027005,2356.0
53.751738274,2222.0
53.768449543,2380.0
53.785160812,2247.0
53.801872081,2299.0
53.818583350,2217.0
53.835294619,2318.0
53.852005888,2306.0
53.868717157,2280.0
53.885428426,2354.0
53.902139695,2290.0
53.918850964,2291.0
53.935562233,2160.0
53.952273502,2264.0
53.968984771,2282.0
53.985696040,2309.0
54.002407309,2269.0
54.019118578,2256.0
54.035829847,2382.0
54.052541116,2264.0
54.069252385,2230.0
54.085963654,2215.0
54.102674923,2320.0
54.119386192,2372.0
54.136097461,2330.0
54.152808730,2279.0
54.169519999,2268.0
54.186231268,2283.0
54.202942537,2250.0
54.219653806,2339.0
54.236365075,2297.0
54.253076344,2310.0
54.269787613,2267.0
54.286498882,2323.0
54.303210151,2311.0
54.319921420,2299.0
54.336632689,2367.0
54.353343958,2379.0
54.370055227,2414.0
54.386766496,2393.0
54.403477765,2331.0
54.420189034,2355.0
54.436900303,2268.0
54.453611571,2423.0
54.470322840,2406.0
54.487034109,2363.0
54.503745378,2314.0
54.520456647,2346.0
54.537167916,2428.0
54.553879185,2374.0
54.570590454,2393.0
54.587301723,2327.0
54.604012992,2235.0
54.620724261,2309.0
54.637435530,2270.0
54.654146799,2267.0
54.670858068,2308.0
54.687569337,2302.0
54.704280606,2255.0
54.720991875,2324.0
54.737703144,2191.0
54.754414413,2268.0
54.771125682,2251.0
54.787836951,2305.0
54.804548220,2248.0
54.821259489,2236.0
54.837970758,2322.0
54.854682027,2348.0
54.871393296,2309.0
54.888104565,2341.0
54.904815834,2405.0
54.921527103,2280.0
54.938238372,2234.0
54.954949641,2274.0
54.971660910,2362.0
54.988372179,2325.0
55.005083448,2330.0
55.021794717,2348.0
55.038505986,2236.0
55.055217255,2199.0
55.071928524,2375.0
55.088639793,2273.0
55.105351062,2232.0
55.122062331,2355.0
55.138773600,2162.0
55.155484869,2248.0
55.172196138,2410.0
55.188907407,2278.0
55.205618676,2313.0
55.222329945,2212.0
55.239041214,2274.0
55.255752482,2222.0
55.272463751,2338.0
55.289175020,2314.0
55.305886289,2315.0
55.322597558,2264.0
55.339308827,2373.0
55.356020096,2331.0
55.372731365,2278.0
55.389442634,2302.0
55.406153903,2317.0
55.422865172,2262.0
55.439576441,2312.0
55.456287710,2230.0
55.472998979,2297.0
55.489710248,2356.0
55.506421517,2209.0
55.523132786,2302.0
55.539844055,2290.0
55.556555324,2275.0
55.573266593,2275.0
55.589977862,2245.0
55.606689131,2280.0
55.623400400,2299.0
55.640111669,2225.0
55.656822938,2349.0
55.673534207,2314.0
55.690245476,2214.0
55.706956745,2273.0
55.723668014,2262.0
55.740379283,2298.0
55.757090552,2347.0
55.773801821,2190.0
55.790513090,2256.0
55.807224359,2275.0
55.823935628,2284.0
55.840646897,2287.0
55.857358166,2313.0
55.874069435,2263.0
55.890780704,2142.0
55.907491973,2222.0
55.924203242,2304.0
55.940914511,2240.0
55.957625780,2306.0
55.974337049,2273.0
55.991048318,2298.0
56.007759587,2331.0
56.024470856,2300.0
56.041182125,2284.0
56.057893393,2272.0
56.074604662,2329.0
56.091315931,2276.0
56.108027200,2275.0
56.124738469,2280.0
56.141449738,2314.0
56.158161007,2272.0
56.174872276,2163.0
56.191583545,2463.0
56.208294814,2293.0
56.225006083,2282.0
56.241717352,2313.0
56.258428621,2232.0
56.275139890,2289.0
56.291851159,2244.0
56.308562428,2181.0
56.325273697,2266.0
56.341984966,2256.0
56.358696235,2274.0
56.375407504,2377.0
56.392118773,2310.0
56.408830042,2401.0
56.425541311,2341.0
56.442252580,2229.0
56.458963849,2283.0
56.475675118,2367.0
56.492386387,2261.0
56.509097656,2254.0
56.525808925,2271.0
56.542520194,2217.0
56.559231463,2303.0
56.575942732,2244.0
56.592654001,2327.0
56.609365270,2259.0
56.626076539,2295.0
56.642787808,2325.0
56.659499077,2238.0
56.676210346,2303.0
56.692921615,2220.0
56.709632884,2327.0
56.726344153,2338.0
56.743055422,2202.0
56.759766691,2317.0
56.776477960,2311.0
56.793189229,2316.0
56.809900498,2312.0
56.826611767,2242.0
56.843323036,2290.0
56.860034304,2310.0
56.876745573,2346.0
56.893456842,2373.0
56.910168111,2322.0
56.926879380,2255.0
56.943590649,2273.0
56.960301918,2283.0
56.977013187,2351.0
56.993724456,2302.0
57.010435725,2265.0
57.027146994,2165.0
57.043858263,2341.0
57.060569532,2283.0
57.077280801,2270.0
57.093992070,2276.0
57.110703339,2259.0
57.127414608,2325.0
57.144125877,2353.0
57.160837146,2278.0
57.177548415,2239.0
57.194259684,2309.0
57.210970953,2341.0
57.227682222,2390.0
57.244393491,2279.0
57.261104760,2283.0
57.277816029,2264.0
57.294527298,2252.0
57.311238567,2319.0
57.327949836,2273.0
57.344661105,2336.0
57.361372374,2240.0
57.378083643,2307.0
57.394794912,2210.0
57.411506181,2186.0
57.428217450,2242.0
57.444928719,2317.0
57.461639988,2208.0
57.478351257,2288.0
57.495062526,2315.0
57.511773795,2379.0
57.528485064,2270.0
57.545196333,2350.0
57.561907602,2228.0
57.578618871,2340.0
57.595330140,2307.0
57.612041409,2317.0
57.628752678,2348.0
57.645463947,2333.0
57.662175216,2285.0
57.678886484,2362.0
57.695597753,2225.0
57.712309022,2313.0
57.729020291,2309.0
57.745731560,2384.0
57.762442829,2314.0
57.779154098,2326.0
57.795865367,2374.0
57.812576636,2303.0
57.829287905,2279.0
57.845999174,2379.0
57.862710443,2354.0
57.879421712,2297.0
57.896132981,2322.0
57.912844250,2255.0
57.929555519,2300.0
57.946266788,2283.0
57.962978057,2248.0
57.979689326,2289.0
57.996400595,2376.0
58.013111864,2330.0
58.029823133,2402.0
58.046534402,2345.0
58.063245671,2386.0
58.079956940,2328.0
58.096668209,2329.0
58.113379478,2285.0
58.130090747,2296.0
58.146802016,2319.0
58.163513285,2315.0
58.180224554,2319.0
58.196935823,2374.0
58.213647092,2312.0
58.230358361,2339.0
58.247069630,2286.0
58.263780899,2285.0
58.280492168,2238.0
58.297203437,2290.0
58.313914706,2318.0
58.330625975,2303.0
58.347337244,2269.0
58.364048513,2279.0
58.380759782,2186.0
58.397471051,2249.0
58.414182320,2226.0
58.430893589,2324.0
58.447604858,2274.0
58.464316127,2347.0
58.481027395,2194.0
58.497738664,2224.0
58.514449933,2253.0
58.531161202,2346.0
58.547872471,2276.0
58.564583740,2343.0
58.581295009,2326.0
58.598006278,2360.0
58.614717547,2237.0
58.631428816,2315.0
58.648140085,2288.0
58.664851354,2251.0
58.681562623,2326.0
58.698273892,2336.0
58.714985161,2291.0
58.731696430,2291.0
58.748407699,2344.0
58.765118968,2310.0
58.781830237,2354.0
58.798541506,2289.0
58.815252775,2297.0
58.831964044,2256.0
58.848675313,2262.0
58.865386582,2287.0
58.882097851,2433.0
58.898809120,2230.0
58.915520389,2278.0
58.932231658,2207.0
58.948942927,2254.0
58.965654196,2294.0
58.982365465,2302.0
58.999076734,2314.0
59.015788003,2267.0
59.032499272,2339.0
59.049210541,2324.0
59.065921810,2281.0
59.082633079,2284.0
59.099344348,2361.0
59.116055617,2367.0
59.132766886,2303.0
59.149478155,2258.0
59.166189424,2275.0
59.182900693,2337.0
59.199611962,2283.0
59.216323231,2279.0
59.233034500,2296.0
59.249745769,2293.0
59.266457038,2290.0
59.283168306,2257.0
59.299879575,2257.0
59.316590844,2296.0
59.333302113,2392.0
59.350013382,2401.0
59.366724651,2333.0
59.383435920,2195.0
59.400147189,2280.0
59.416858458,2352.0
59.433569727,2316.0
59.450280996,2381.0
59.466992265,2248.0
59.483703534,2396.0
59.500414803,2264.0
59.517126072,2330.0
59.533837341,2287.0
59.550548610,2321.0
59.567259879,2320.0
59.583971148,2318.0
59.600682417,2313.0
59.617393686,2300.0
59.634104955,2361.0
59.650816224,2311.0
59.667527493,2334.0
59.684238762,2356.0
59.700950031,2321.0
59.717661300,2338.0
59.734372569,2377.0
59.751083838,2269.0
59.767795107,2361.0
59.784506376,2339.0
59.801217645,2347.0
59.817928914,2352.0
59.834640183,2207.0
59.851351452,2396.0
59.868062721,2437.0
59.884773990,2302.0
59.901485259,2279.0
59.918196528,2293.0
59.934907797,2330.0
59.951619066,2281.0
59.968330335,2342.0
59.985041604,2265.0
60.001752873,2375.0
60.018464142,2269.0
60.035175411,2356.0
60.051886680,2259.0
60.068597949,2324.0
60.085309217,2294.0
60.102020486,2331.0
60.118731755,2335.0
60.135443024,2294.0
60.152154293,2316.0
60.168865562,2360.0
60.185576831,2344.0
60.202288100,2240.0
60.218999369,2395.0
60.235710638,2358.0
60.252421907,2308.0
60.269133176,2384.0
60.285844445,2359.0
60.302555714,2337.0
60.319266983,2362.0
60.335978252,2316.0
60.352689521,2371.0
60.369400790,2331.0
60.386112059,2391.0
60.402823328,2381.0
60.419534597,2366.0
60.436245866,2462.0
60.452957135,2368.0
60.469668404,2338.0
60.486379673,2376.0
60.503090942,2356.0
60.519802211,2440.0
60.536513480,2413.0
60.553224749,2450.0
60.569936018,2401.0
60.586647287,2385.0
60.603358556,2391.0
60.620069825,2403.0
60.636781094,2421.0
60.653492363,2344.0
60.670203632,2405.0
60.686914901,2475.0
60.703626170,2457.0
60.720337439,2522.0
60.737048708,2453.0
60.753759977,2434.0
60.770471246,2552.0
60.787182515,2486.0
60.803893784,2588.0
60.820605053,2441.0
60.837316322,2487.0
60.854027591,2550.0
60.870738860,2578.0
60.887450129,2505.0
60.904161397,2548.0
60.920872666,2509.0
60.937583935,2656.0
60.954295204,2555.0
60.971006473,2565.0
60.987717742,2542.0
61.004429011,2519.0
61.021140280,2558.0
61.037851549,2578.0
61.054562818,2653.0
61.071274087,2703.0
61.087985356,2623.0
61.104696625,2482.0
61.121407894,2643.0
61.138119163,2590.0
61.154830432,2597.0
61.171541701,2453.0
61.188252970,2510.0
61.204964239,2623.0
61.221675508,2627.0
61.238386777,2537.0
61.255098046,2598.0
61.271809315,2573.0
61.288520584,2529.0
61.305231853,2563.0
61.321943122,2657.0
61.338654391,2565.0
61.355365660,2594.0
61.372076929,2577.0
61.388788198,2626.0
61.405499467,2524.0
61.422210736,2438.0
61.438922005,2554.0
61.455633274,2610.0
61.472344543,2568.0
61.489055812,2553.0
61.505767081,2461.0
61.522478350,2539.0
61.539189619,2538.0
61.555900888,2522.0
61.572612157,2475.0
61.589323426,2460.0
61.606034695,2521.0
61.622745964,2455.0
61.639457233,2432.0
61.656168502,2487.0
61.672879771,2525.0
61.689591040,2424.0
61.706302308,2401.0
61.723013577,2500.0
61.739724846,2389.0
61.756436115,2332.0
61.773147384,2374.0
61.789858653,2372.0
61.806569922,2359.0
61.823281191,2442.0
61.839992460,2525.0
61.856703729,2380.0
61.873414998,2490.0
61.890126267,2378.0
61.906837536,2420.0
61.923548805,2466.0
61.940260074,2379.0
61.956971343,2433.0
61.973682612,2456.0
61.990393881,2361.0
62.007105150,2427.0
62.023816419,2362.0
62.040527688,2308.0
62.057238957,2323.0
62.073950226,2387.0
62.090661495,2365.0
62.107372764,2351.0
62.124084033,2322.0
62.140795302,2333.0
62.157506571,2375.0
62.174217840,2370.0
62.190929109,2384.0
62.207640378,2473.0
62.224351647,2343.0
62.241062916,2290.0
62.257774185,2408.0
62.274485454,2439.0
62.291196723,2345.0
62.307907992,2335.0
62.324619261,2339.0
62.341330530,2384.0
62.358041799,2272.0
62.374753068,2371.0
62.391464337,2346.0
62.408175606,2297.0
62.424886875,2318.0
62.441598144,2308.0
62.458309413,2317.0
62.475020682,2363.0
62.491731951,2261.0
62.508443219,2237.0
62.525154488,2339.0
62.541865757,2374.0
62.558577026,2331.0
62.575288295,2394.0
62.591999564,2313.0
62.608710833,2390.0
62.625422102,2362.0
62.642133371,2289.0
62.658844640,2314.0
62.675555909,2262.0
62.692267178,2256.0
62.708978447,2388.0
62.725689716,2347.0
62.742400985,2423.0
62.759112254,2378.0
62.775823523,2299.0
62.792534792,2443.0
62.809246061,2361.0
62.825957330,2348.0
62.842668599,2285.0
62.859379868,2324.0
62.876091137,2296.0
62.892802406,2352.0
62.909513675,2308.0
62.926224944,2365.0
62.942936213,2404.0
62.959647482,2405.0
62.976358751,2301.0
62.993070020,2294.0
63.009781289,2308.0
63.026492558,2267.0
63.043203827,2288.0
63.059915096,2316.0
63.076626365,2297.0
63.093337634,2191.0
63.110048903,2320.0
63.126760172,2361.0
63.143471441,2326.0
63.160182710,2236.0
63.176893979,2278.0
63.193605248,2348.0
63.210316517,2298.0
63.227027786,2344.0
63.243739055,2301.0
63.260450324,2306.0
63.277161593,2281.0
63.293872862,2196.0
63.310584130,2363.0
63.327295399,2303.0
63.344006668,2398.0
63.360717937,2255.0
63.377429206,2330.0
63.394140475,2290.0
63.410851744,2327.0
63.427563013,2305.0
63.444274282,2266.0
63.460985551,2400.0
63.477696820,2397.0
63.494408089,2273.0
63.511119358,2266.0
63.527830627,2262.0
63.544541896,2346.0
63.561253165,2332.0
63.577964434,2285.0
63.594675703,2338.0
63.611386972,2321.0
63.628098241,2302.0
63.644809510,2305.0
63.661520779,2347.0
63.678232048,2306.0
63.694943317,2372.0
63.711654586,2293.0
63.728365855,2342.0
63.745077124,2327.0
63.761788393,2329.0
63.778499662,2246.0
63.795210931,2311.0
63.811922200,2313.0
63.828633469,2269.0
63.845344738,2248.0
63.862056007,2244.0
63.878767276,2276.0
63.895478545,2250.0
63.912189814,2336.0
63.928901083,2311.0
63.945612352,2273.0
63.962323621,2295.0
63.979034890,2284.0
63.995746159,2315.0
64.012457428,2254.0
64.029168697,2256.0
64.045879966,2284.0
64.062591235,2319.0
64.079302504,2268.0
64.096013773,2305.0
64.112725041,2312.0
64.129436310,2322.0
64.146147579,2262.0
64.162858848,2267.0
64.179570117,2301.0
64.196281386,2300.0
64.212992655,2356.0
64.229703924,2311.0
64.246415193,2223.0
64.263126462,2223.0
64.279837731,2266.0
64.296549000,2318.0
64.313260269,2259.0
64.329971538,2242.0
64.346682807,2249.0
64.363394076,2277.0
64.380105345,2279.0
64.396816614,2241.0
64.413527883,2442.0
64.430239152,2251.0
64.446950421,2295.0
64.463661690,2268.0
64.480372959,2311.0
64.497084228,2224.0
64.513795497,2260.0
64.530506766,2285.0
64.547218035,2337.0
64.563929304,2311.0
64.580640573,2306.0
64.597351842,2381.0
64.614063111,2360.0
64.630774380,2294.0
64.647485649,2338.0
64.664196918,2233.0
64.680908187,2279.0
64.697619456,2315.0
64.714330725,2281.0
64.731041994,2339.0
64.747753263,2337.0
64.764464532,2284.0
64.781175801,2285.0
64.797887070,2261.0
64.814598339,2327.0
64.831309608,2279.0
64.848020877,2246.0
64.864732146,2391.0
64.881443415,2260.0
64.898154684,2295.0
64.914865953,2341.0
64.931577221,2367.0
64.948288490,2387.0
64.964999759,2331.0
64.981711028,2334.0
64.998422297,2319.0
65.015133566,2251.0
65.031844835,2324.0
65.048556104,2235.0
65.065267373,2368.0
65.081978642,2265.0
65.098689911,2309.0
65.115401180,2356.0
65.132112449,2285.0
65.148823718,2399.0
65.165534987,2289.0
65.182246256,2361.0
65.198957525,2306.0
65.215668794,2303.0
65.232380063,2413.0
65.249091332,2343.0
65.265802601,2393.0
65.282513870,2270.0
65.299225139,2302.0
65.315936408,2354.0
65.332647677,2270.0
65.349358946,2285.0
65.366070215,2240.0
65.382781484,2312.0
65.399492753,2358.0
65.416204022,2301.0
65.432915291,2285.0
65.449626560,2353.0
65.466337829,2384.0
65.483049098,2305.0
65.499760367,2375.0
65.516471636,2251.0
65.533182905,2423.0
65.549894174,2291.0
65.566605443,2340.0
65.583316712,2312.0
65.600027981,2409.0
65.616739250,2235.0
65.633450519,2304.0
65.650161788,2361.0
65.666873057,2343.0
65.683584326,2256.0
65.700295595,2336.0
65.717006864,2391.0
65.733718132,2331.0
65.750429401,2277.0
65.767140670,2438.0
65.783851939,2305.0
65.800563208,2382.0
65.817274477,2371.0
65.833985746,2374.0
65.850697015,2368.0
65.867408284,2236.0
65.884119553,2324.0
65.900830822,2299.0
65.917542091,2417.0
65.934253360,2324.0
65.950964629,2314.0
65.967675898,2294.0
65.984387167,2386.0
66.001098436,2409.0
66.017809705,2356.0
66.034520974,2321.0
66.051232243,2290.0
66.067943512,2361.0
66.084654781,2366.0
66.101366050,2385.0
66.118077319,2442.0
66.134788588,2390.0
66.151499857,2388.0
66.168211126,2357.0
66.184922395,2268.0
66.201633664,2318.0
66.218344933,2347.0
66.235056202,2359.0
66.251767471,2439.0
66.268478740,2340.0
66.285190009,2343.0
66.301901278,2340.0
66.318612547,2386.0
66.335323816,2295.0
66.352035085,2343.0
66.368746354,2252.0
66.385457623,2348.0
66.402168892,2295.0
66.418880161,2293.0
66.435591430,2316.0
66.452302699,2336.0
66.469013968,2351.0
66.485725237,2351.0
66.502436506,2295.0
66.519147775,2293.0
66.535859043,2272.0
66.552570312,2348.0
66.569281581,2331.0
66.585992850,2347.0
66.602704119,2231.0
66.619415388,2330.0
66.636126657,2347.0
66.652837926,2276.0
66.669549195,2383.0
66.686260464,2328.0
66.702971733,2351.0
66.719683002,2308.0
66.736394271,2289.0
66.753105540,2327.0
66.769816809,2382.0
66.786528078,2304.0
66.803239347,2313.0
66.819950616,2325.0
66.836661885,2277.0
66.853373154,2230.0
66.870084423,2334.0
66.886795692,2252.0
66.903506961,2367.0
66.920218230,2375.0
66.936929499,2231.0
66.953640768,2304.0
66.970352037,2309.0
66.987063306,2356.0
67.003774575,2348.0
67.020485844,2287.0
67.037197113,2347.0
67.053908382,2387.0
67.070619651,2388.0
67.087330920,2170.0
67.104042189,2372.0
67.120753458,2415.0
67.137464727,2336.0
67.154175996,2365.0
67.170887265,2388.0
67.187598534,2381.0
67.204309803,2422.0
67.221021072,2277.0
67.237732341,2342.0
67.254443610,2390.0
67.271154879,2383.0
67.287866148,2414.0
67.304577417,2348.0
67.321288686,2298.0
67.337999954,2448.0
67.354711223,2379.0
67.371422492,2407.0
67.388133761,2391.0
67.404845030,2391.0
67.421556299,2435.0
67.438267568,2379.0
67.454978837,2393.0
67.471690106,2427.0
67.488401375,2336.0
67.505112644,2388.0
67.521823913,2355.0
67.538535182,2386.0
67.555246451,2462.0
67.571957720,2496.0
67.588668989,2614.0
67.605380258,2581.0
67.622091527,2820.0
67.638802796,2960.0
67.655514065,3023.0
67.672225334,3072.0
67.688936603,3158.0
67.705647872,3286.0
67.722359141,3306.0
67.739070410,3182.0
67.755781679,3129.0
67.772492948,3180.0
67.789204217,3046.0
67.805915486,2789.0
67.822626755,2743.0
67.839338024,2721.0
67.856049293,2717.0
67.872760562,2716.0
67.889471831,2697.0
67.906183100,2831.0
67.922894369,2754.0
67.939605638,2739.0
67.956316907,2685.0
67.973028176,2652.0
67.989739445,2632.0
68.006450714,2416.0
68.023161983,2517.0
68.039873252,2423.0
68.056584521,2383.0
68.073295790,2320.0
68.090007059,2298.0
68.106718328,2444.0
68.123429597,2376.0
68.140140866,2399.0
68.156852134,2398.0
68.173563403,2302.0
68.190274672,2325.0
68.206985941,2336.0
68.223697210,2400.0
68.240408479,2360.0
68.257119748,2346.0
68.273831017,2307.0
68.290542286,2321.0
68.307253555,2383.0
68.323964824,2307.0
68.340676093,2378.0
68.357387362,2396.0
68.374098631,2413.0
68.390809900,2400.0
68.407521169,2397.0
68.424232438,2275.0
68.440943707,2450.0
68.457654976,2361.0
68.474366245,2347.0
68.491077514,2380.0
68.507788783,2394.0
68.524500052,2311.0
68.541211321,2364.0
68.557922590,2399.0
68.574633859,2381.0
68.591345128,2324.0
68.608056397,2259.0
68.624767666,2414.0
68.641478935,2388.0
68.658190204,2401.0
68.674901473,2356.0
68.691612742,2338.0
68.708324011,2320.0
68.725035280,2247.0
68.741746549,2341.0
68.758457818,2439.0
68.775169087,2336.0
68.791880356,2412.0
68.808591625,2354.0
68.825302894,2360.0
68.842014163,2450.0
68.858725432,2349.0
68.875436701,2345.0
68.892147970,2306.0
68.908859239,2354.0
68.925570508,2326.0
68.942281777,2363.0
68.958993045,2441.0
68.975704314,2329.0
68.992415583,2370.0
69.009126852,2405.0
69.025838121,2384.0
69.042549390,2418.0
69.059260659,2328.0
69.075971928,2316.0
69.092683197,2329.0
69.109394466,2424.0
69.126105735,2405.0
69.142817004,2344.0
69.159528273,2397.0
69.176239542,2437.0
69.192950811,2425.0
69.209662080,2382.0
69.226373349,2395.0
69.243084618,2377.0
69.259795887,2361.0
69.276507156,2282.0
69.293218425,2395.0
69.309929694,2370.0
69.326640963,2349.0
69.343352232,2367.0
69.360063501,2341.0
69.376774770,2330.0
69.393486039,2313.0
69.410197308,2293.0
69.426908577,2305.0
69.443619846,2322.0
69.460331115,2359.0
69.477042384,2351.0
69.493753653,2311.0
69.510464922,2304.0
69.527176191,2378.0
69.543887460,2363.0
69.560598729,2409.0
69.577309998,2417.0
69.594021267,2300.0
69.610732536,2289.0
69.627443805,2357.0
69.644155074,2427.0
69.660866343,2334.0
69.677577612,2371.0
69.694288881,2351.0
69.711000150,2316.0
69.727711419,2360.0
69.744422688,2408.0
69.761133956,2333.0
69.777845225,2373.0
69.794556494,2386.0
69.811267763,2372.0
69.827979032,2317.0
69.844690301,2328.0
69.861401570,2349.0
69.878112839,2456.0
69.894824108,2372.0
69.911535377,2357.0
69.928246646,2302.0
69.944957915,2294.0
69.961669184,2341.0
69.978380453,2369.0
69.995091722,2347.0
70.011802991,2455.0
70.028514260,2415.0
70.045225529,2372.0
70.061936798,2380.0
70.078648067,2273.0
70.095359336,2328.0
70.112070605,2354.0
70.128781874,2408.0
70.145493143,2409.0
70.162204412,2376.0
70.178915681,2364.0
70.195626950,2454.0
70.212338219,2392.0
70.229049488,2302.0
70.245760757,2420.0
70.262472026,2422.0
70.279183295,2372.0
70.295894564,2328.0
70.312605833,2300.0
70.329317102,2420.0
70.346028371,2378.0
70.362739640,2418.0
70.379450909,2470.0
70.396162178,2423.0
70.412873447,2387.0
70.429584716,2385.0
70.446295985,2456.0
70.463007254,2351.0
70.479718523,2348.0
70.496429792,2287.0
70.513141061,2230.0
70.529852330,2373.0
70.546563599,2376.0
70.563274867,2383.0
70.579986136,2414.0
70.596697405,2391.0
70.613408674,2319.0
70.630119943,2300.0
70.646831212,2371.0
70.663542481,2408.0
70.680253750,2460.0
70.696965019,2483.0
70.713676288,2521.0
70.730387557,2446.0
70.747098826,2440.0
70.763810095,2324.0
70.780521364,2416.0
70.797232633,2404.0
70.813943902,2396.0
70.830655171,2370.0
70.847366440,2420.0
70.864077709,2410.0
70.880788978,2446.0
70.897500247,2476.0
70.914211516,2484.0
70.930922785,2516.0
70.947634054,2490.0
70.964345323,2464.0
70.981056592,2365.0
70.997767861,2397.0
71.014479130,2437.0
71.031190399,2448.0
71.047901668,2399.0
71.064612937,2402.0
71.081324206,2426.0
71.098035475,2426.0
71.114746744,2438.0
71.131458013,2293.0
71.148169282,2394.0
71.164880551,2426.0
71.181591820,2377.0
71.198303089,2441.0
71.215014358,2500.0
71.231725627,2455.0
71.248436896,2316.0
71.265148165,2413.0
71.281859434,2490.0
71.298570703,2463.0
71.315281972,2353.0
71.331993241,2530.0
71.348704510,2480.0
71.365415779,2523.0
71.382127047,2404.0
71.398838316,2373.0
71.415549585,2517.0
71.432260854,2501.0
71.448972123,2492.0
71.465683392,2387.0
71.482394661,2477.0
71.499105930,2444.0
71.515817199,2374.0
71.532528468,2450.0
71.549239737,2553.0
71.565951006,2420.0
71.582662275,2446.0
71.599373544,2424.0
71.616084813,2477.0
71.632796082,2390.0
71.649507351,2422.0
71.666218620,2453.0
71.682929889,2503.0
71.699641158,2502.0
71.716352427,2383.0
71.733063696,2415.0
71.749774965,2448.0
71.766486234,2571.0
71.783197503,2454.0
71.799908772,2487.0
71.816620041,2515.0
71.833331310,2458.0
71.850042579,2427.0
71.866753848,2417.0
71.883465117,2425.0
71.900176386,2433.0
71.916887655,2537.0
71.933598924,2464.0
71.950310193,2515.0
71.967021462,2461.0
71.983732731,2560.0
72.000444000,2597.0
72.017155269,2464.0
72.033866538,2471.0
72.050577807,2478.0
72.067289076,2488.0
72.084000345,2475.0
72.100711614,2504.0
72.117422883,2528.0
72.134134152,2540.0
72.150845421,2515.0
72.167556690,2464.0
72.184267958,2426.0
72.200979227,2422.0
72.217690496,2493.0
72.234401765,2436.0
72.251113034,2513.0
72.267824303,2584.0
72.284535572,2480.0
72.301246841,2634.0
72.317958110,2501.0
72.334669379,2548.0
72.351380648,2504.0
72.368091917,2490.0
72.384803186,2553.0
72.401514455,2544.0
72.418225724,2525.0
72.434936993,2414.0
72.451648262,2546.0
72.468359531,2555.0
72.485070800,2451.0
72.501782069,2547.0
72.518493338,2552.0
72.535204607,2599.0
72.551915876,2530.0
72.568627145,2455.0
72.585338414,2615.0
72.602049683,2490.0
72.618760952,2573.0
72.635472221,2571.0
72.652183490,2581.0
72.668894759,2581.0
72.685606028,2600.0
72.702317297,2597.0
72.719028566,2556.0
72.735739835,2603.0
72.752451104,2608.0
72.769162373,2542.0
72.785873642,2655.0
72.802584911,2681.0
72.819296180,2630.0
72.836007449,2580.0
72.852718718,2655.0
72.869429987,2564.0
72.886141256,2612.0
72.902852525,2590.0
72.919563794,2588.0
72.936275063,2663.0
72.952986332,2649.0
72.969697601,2639.0
72.986408869,2694.0
73.003120138,2629.0
73.019831407,2669.0
73.036542676,2716.0
73.053253945,2697.0
73.069965214,2783.0
73.086676483,2612.0
73.103387752,2717.0
73.120099021,2892.0
73.136810290,2733.0
73.153521559,2875.0
73.170232828,2814.0
73.186944097,2753.0
73.203655366,2861.0
73.220366635,2858.0
73.237077904,3025.0
73.253789173,2901.0
73.270500442,2965.0
73.287211711,2986.0
73.303922980,2940.0
73.320634249,3068.0
73.337345518,3123.0
73.354056787,3185.0
73.370768056,3411.0
73.387479325,3658.0
73.404190594,4063.0
73.420901863,4960.0
73.437613132,6381.0
73.454324401,8765.0
73.471035670,10983.0
73.487746939,12612.0
73.504458208,12276.0
73.521169477,11016.0
73.537880746,9468.0
73.554592015,8060.0
73.571303284,7070.0
73.588014553,6481.0
73.604725822,6038.0
73.621437091,5852.0
73.638148360,6174.0
73.654859629,6748.0
73.671570898,7619.0
73.688282167,8597.0
73.704993436,8977.0
73.721704705,8634.0
73.738415974,7848.0
73.755127243,7186.0
73.771838512,6445.0
73.788549780,5890.0
73.805261049,5382.0
73.821972318,5225.0
73.838683587,4949.0
73.855394856,4952.0
73.872106125,4853.0
73.888817394,4728.0
73.905528663,4693.0
73.922239932,4466.0
73.938951201,4431.0
73.955662470,4405.0
73.972373739,4229.0
73.989085008,4205.0
74.005796277,4194.0
74.022507546,4167.0
74.039218815,4061.0
74.055930084,4041.0
74.072641353,3956.0
74.089352622,3849.0
74.106063891,3779.0
74.122775160,3830.0
74.139486429,3611.0
74.156197698,3685.0
74.172908967,3443.0
74.189620236,3467.0
74.206331505,3419.0
74.223042774,3414.0
74.239754043,3289.0
74.256465312,3135.0
74.273176581,3139.0
74.289887850,3217.0
74.306599119,3154.0
74.323310388,3061.0
74.340021657,3067.0
74.356732926,3058.0
74.373444195,2998.0
74.390155464,2963.0
74.406866733,2863.0
74.423578002,2747.0
74.440289271,2858.0
74.457000540,2818.0
74.473711809,2744.0
74.490423078,2803.0
74.507134347,2669.0
74.523845616,2651.0
74.540556885,2787.0
74.557268154,2702.0
74.573979423,2749.0
74.590690692,2735.0
74.607401960,2706.0
74.624113229,2734.0
74.640824498,2760.0
74.657535767,2661.0
74.674247036,2613.0
74.690958305,2646.0
74.707669574,2586.0
74.724380843,2585.0
74.741092112,2669.0
74.757803381,2755.0
74.774514650,2645.0
74.791225919,2663.0
74.807937188,2691.0
74.824648457,2569.0
74.841359726,2618.0
74.858070995,2705.0
74.874782264,2533.0
74.891493533,2599.0
74.908204802,2684.0
74.924916071,2592.0
74.941627340,2581.0
74.958338609,2669.0
74.975049878,2668.0
74.991761147,2635.0
75.008472416,2610.0
75.025183685,2628.0
75.041894954,2642.0
75.058606223,2524.0
75.075317492,2687.0
75.092028761,2463.0
75.108740030,2702.0
75.125451299,2588.0
75.142162568,2560.0
75.158873837,2613.0
75.175585106,2560.0
75.192296375,2570.0
75.209007644,2676.0
75.225718913,2675.0
75.242430182,2556.0
75.259141451,2535.0
75.275852720,2540.0
75.292563989,2626.0
75.309275258,2582.0
75.325986527,2573.0
75.342697796,2673.0
75.359409065,2584.0
75.376120334,2603.0
75.392831603,2581.0
75.409542871,2618.0
75.426254140,2581.0
75.442965409,2554.0
75.459676678,2556.0
75.476387947,2560.0
75.493099216,2581.0
75.509810485,2508.0
75.526521754,2486.0
75.543233023,2549.0
75.559944292,2557.0
75.576655561,2567.0
75.593366830,2586.0
75.610078099,2640.0
75.626789368,2511.0
75.643500637,2465.0
75.660211906,2533.0
75.676923175,2529.0
75.693634444,2494.0
75.710345713,2652.0
75.727056982,2477.0
75.743768251,2659.0
75.760479520,2558.0
75.777190789,2455.0
75.793902058,2499.0
75.810613327,2557.0
75.827324596,2616.0
75.844035865,2635.0
75.860747134,2643.0
75.877458403,2514.0
75.894169672,2592.0
75.910880941,2511.0
75.927592210,2565.0
75.944303479,2616.0
75.961014748,2637.0
75.977726017,2559.0
75.994437286,2641.0
76.011148555,2506.0
76.027859824,2519.0
76.044571093,2564.0
76.061282362,2607.0
76.077993631,2602.0
76.094704900,2606.0
76.111416169,2522.0
76.128127438,2607.0
76.144838707,2527.0
76.161549976,2619.0
76.178261245,2546.0
76.194972514,2595.0
76.211683782,2558.0
76.228395051,2563.0
76.245106320,2550.0
76.261817589,2525.0
76.278528858,2575.0
76.295240127,2705.0
76.311951396,2577.0
76.328662665,2606.0
76.345373934,2530.0
76.362085203,2616.0
76.378796472,2495.0
76.395507741,2666.0
76.412219010,2619.0
76.428930279,2585.0
76.445641548,2559.0
76.462352817,2572.0
76.479064086,2609.0
76.495775355,2584.0
76.512486624,2624.0
76.529197893,2471.0
76.545909162,2668.0
76.562620431,2567.0
76.579331700,2597.0
76.596042969,2623.0
76.612754238,2523.0
76.629465507,2576.0
76.646176776,2613.0
76.662888045,2605.0
76.679599314,2599.0
76.696310583,2561.0
76.713021852,2654.0
76.729733121,2663.0
76.746444390,2525.0
76.763155659,2668.0
76.779866928,2560.0
76.796578197,2665.0
76.813289466,2588.0
76.830000735,2571.0
76.846712004,2578.0
76.863423273,2593.0
76.880134542,2717.0
76.896845811,2604.0
76.913557080,2659.0
76.930268349,2587.0
76.946979618,2608.0
76.963690887,2549.0
76.980402156,2595.0
76.997113425,2656.0
77.013824693,2665.0
77.030535962,2667.0
77.047247231,2593.0
77.063958500,2583.0
77.080669769,2593.0
77.097381038,2656.0
77.114092307,2627.0
77.130803576,2623.0
77.147514845,2590.0
77.164226114,2557.0
77.180937383,2621.0
77.197648652,2695.0
77.214359921,2610.0
77.231071190,2570.0
77.247782459,2706.0
77.264493728,2585.0
77.281204997,2612.0
77.297916266,2628.0
77.314627535,2617.0
77.331338804,2657.0
77.348050073,2546.0
77.364761342,2610.0
77.381472611,2605.0
77.398183880,2626.0
77.414895149,2644.0
77.431606418,2724.0
77.448317687,2546.0
77.465028956,2594.0
77.481740225,2604.0
77.498451494,2637.0
77.515162763,2733.0
77.531874032,2549.0
77.548585301,2687.0
77.565296570,2604.0
77.582007839,2642.0
77.598719108,2519.0
77.615430377,2689.0
77.632141646,2596.0
77.648852915,2628.0
77.665564184,2649.0
77.682275453,2611.0
77.698986722,2612.0
77.715697991,2628.0
77.732409260,2580.0
77.749120529,2572.0
77.765831798,2661.0
77.782543067,2634.0
77.799254336,2525.0
77.815965605,2633.0
77.832676873,2572.0
77.849388142,2591.0
77.866099411,2632.0
77.882810680,2634.0
77.899521949,2629.0
77.916233218,2674.0
77.932944487,2635.0
77.949655756,2579.0
77.966367025,2686.0
77.983078294,2646.0
77.999789563,2646.0
78.016500832,2622.0
78.033212101,2696.0
78.049923370,2669.0
78.066634639,2742.0
78.083345908,2619.0
78.100057177,2711.0
78.116768446,2642.0
78.133479715,2690.0
78.150190984,2701.0
78.166902253,2604.0
78.183613522,2610.0
78.200324791,2639.0
78.217036060,2643.0
78.233747329,2597.0
78.250458598,2547.0
78.267169867,2592.0
78.283881136,2709.0
78.300592405,2612.0
78.317303674,2517.0
78.334014943,2610.0
78.350726212,2712.0
78.367437481,2732.0
78.384148750,2708.0
78.400860019,2596.0
78.417571288,2633.0
78.434282557,2751.0
78.450993826,2676.0
78.467705095,2625.0
78.484416364,2584.0
78.501127633,2714.0
78.517838902,2634.0
78.534550171,2597.0
78.551261440,2642.0
78.567972709,2686.0
78.584683978,2632.0
78.601395247,2666.0
78.618106516,2641.0
78.634817784,2737.0
78.651529053,2636.0
78.668240322,2625.0
78.684951591,2827.0
78.701662860,2763.0
78.718374129,2642.0
78.735085398,2742.0
78.751796667,2653.0
78.768507936,2655.0
78.785219205,2671.0
78.801930474,2649.0
78.818641743,2678.0
78.835353012,2617.0
78.852064281,2642.0
78.868775550,2618.0
78.885486819,2665.0
78.902198088,2649.0
78.918909357,2649.0
78.935620626,2686.0
78.952331895,2640.0
78.969043164,2629.0
78.985754433,2717.0
79.002465702,2591.0
79.019176971,2635.0
79.035888240,2618.0
79.052599509,2609.0
79.069310778,2528.0
79.086022047,2686.0
79.102733316,2640.0
79.119444585,2600.0
79.136155854,2704.0
79.152867123,2676.0
79.169578392,2626.0
79.186289661,2686.0
79.203000930,2753.0
79.219712199,2695.0
79.236423468,2682.0
79.253134737,2774.0
79.269846006,2683.0
79.286557275,2706.0
79.303268544,2680.0
79.319979813,2687.0
79.336691082,2765.0
79.353402351,2665.0
79.370113620,2689.0
79.386824889,2647.0
79.403536158,2626.0
79.420247427,2824.0
79.436958695,2698.0
79.453669964,2617.0
79.470381233,2654.0
79.487092502,2693.0
79.503803771,2749.0
79.520515040,2755.0
79.537226309,2825.0
79.553937578,2680.0
79.570648847,2696.0
79.587360116,2726.0
79.604071385,2640.0
79.620782654,2613.0
79.637493923,2671.0
79.654205192,2666.0
79.670916461,2676.0
79.687627730,2763.0
79.704338999,2695.0
79.721050268,2722.0
79.737761537,2705.0
79.754472806,2695.0
79.771184075,2633.0
79.787895344,2787.0
79.804606613,2730.0
79.821317882,2643.0
79.838029151,2710.0
79.854740420,2732.0
79.871451689,2747.0
79.888162958,2788.0
79.904874227,2726.0
79.921585496,2752.0
79.938296765,2755.0
79.955008034,2709.0
79.971719303,2675.0
79.988430572,2725.0
80.005141841,2738.0
80.021853110,2769.0
80.038564379,2573.0
80.055275648,2769.0
80.071986917,2790.0
80.088698186,2703.0
80.105409455,2782.0
80.122120724,2711.0
80.138831993,2692.0
80.155543262,2709.0
80.172254531,2739.0
80.188965800,2770.0
80.205677069,2785.0
80.222388338,2661.0
80.239099606,2788.0
80.255810875,2764.0
80.272522144,2750.0
80.289233413,2569.0
80.305944682,2755.0
80.322655951,2734.0
80.339367220,2799.0
80.356078489,2738.0
80.372789758,2696.0
80.389501027,2710.0
80.406212296,2788.0
80.422923565,2775.0
80.439634834,2821.0
80.456346103,2679.0
80.473057372,2679.0
80.489768641,2753.0
80.506479910,2727.0
80.523191179,2816.0
80.539902448,2742.0
80.556613717,2677.0
80.573324986,2646.0
80.590036255,2719.0
80.606747524,2758.0
80.623458793,2681.0
80.640170062,2830.0
80.656881331,2679.0
80.673592600,2719.0
80.690303869,2771.0
80.707015138,2737.0
80.723726407,2709.0
80.740437676,2687.0
80.757148945,2708.0
80.773860214,2704.0
80.790571483,2711.0
80.807282752,2656.0
80.823994021,2565.0
80.840705290,2655.0
80.857416559,2682.0
80.874127828,2706.0
80.890839097,2824.0
80.907550366,2796.0
80.924261635,2687.0
80.940972904,2691.0
80.957684173,2652.0
80.974395442,2652.0
80.991106711,2614.0
81.007817980,2679.0
81.024529249,2658.0
81.041240518,2632.0
81.057951786,2679.0
81.074663055,2712.0
81.091374324,2605.0
81.108085593,2644.0
81.124796862,2669.0
81.141508131,2702.0
81.158219400,2638.0
81.174930669,2668.0
81.191641938,2655.0
81.208353207,2630.0
81.225064476,2610.0
81.241775745,2752.0
81.258487014,2706.0
81.275198283,2680.0
81.291909552,2647.0
81.308620821,2753.0
81.325332090,2690.0
81.342043359,2702.0
81.358754628,2724.0
81.375465897,2692.0
81.392177166,2710.0
81.408888435,2751.0
81.425599704,2679.0
81.442310973,2692.0
81.459022242,2635.0
81.475733511,2656.0
81.492444780,2687.0
81.509156049,2747.0
81.525867318,2547.0
81.542578587,2728.0
81.559289856,2748.0
81.576001125,2750.0
81.592712394,2770.0
81.609423663,2780.0
81.626134932,2789.0
81.642846201,2947.0
81.659557470,2836.0
81.676268739,2743.0
81.692980008,2896.0
81.709691277,2851.0
81.726402546,2829.0
81.743113815,2711.0
81.759825084,2794.0
81.776536353,2771.0
81.793247622,2688.0
81.809958891,2664.0
81.826670160,2794.0
81.843381429,2704.0
81.860092697,2767.0
81.876803966,2689.0
81.893515235,2750.0
81.910226504,2724.0
81.926937773,2844.0
81.943649042,2663.0
81.960360311,2766.0
81.977071580,2805.0
81.993782849,2663.0
82.010494118,2798.0
82.027205387,2668.0
82.043916656,2603.0
82.060627925,2603.0
82.077339194,2763.0
82.094050463,2573.0
82.110761732,2604.0
82.127473001,2490.0
82.144184270,2669.0
82.160895539,2589.0
82.177606808,2660.0
82.194318077,2635.0
82.211029346,2631.0
82.227740615,2634.0
82.244451884,2636.0
82.261163153,2656.0
82.277874422,2565.0
82.294585691,2552.0
82.311296960,2631.0
82.328008229,2582.0
82.344719498,2595.0
82.361430767,2665.0
82.378142036,2576.0
82.394853305,2617.0
82.411564574,2614.0
82.428275843,2647.0
82.444987112,2574.0
82.461698381,2626.0
82.478409650,2667.0
82.495120919,2675.0
82.511832188,2640.0
82.528543457,2633.0
82.545254726,2736.0
82.561965995,2680.0
82.578677264,2682.0
82.595388533,2665.0
82.612099802,2754.0
82.628811071,2581.0
82.645522340,2577.0
82.662233608,2616.0
82.678944877,2794.0
82.695656146,2549.0
82.712367415,2750.0
82.729078684,2683.0
82.745789953,2621.0
82.762501222,2665.0
82.779212491,2716.0
82.795923760,2608.0
82.812635029,2687.0
82.829346298,2790.0
82.846057567,2598.0
82.862768836,2633.0
82.879480105,2654.0
82.896191374,2611.0
82.912902643,2614.0
82.929613912,2735.0
82.946325181,2671.0
82.963036450,2662.0
82.979747719,2611.0
82.996458988,2686.0
83.013170257,2598.0
83.029881526,2699.0
83.046592795,2616.0
83.063304064,2685.0
83.080015333,2672.0
83.096726602,2721.0
83.113437871,2745.0
83.130149140,2685.0
83.146860409,2625.0
83.163571678,2625.0
83.180282947,2654.0
83.196994216,2809.0
83.213705485,2704.0
83.230416754,2720.0
83.247128023,2671.0
83.263839292,2726.0
83.280550561,2732.0
83.297261830,2738.0
83.313973099,2594.0
83.330684368,2797.0
83.347395637,2716.0
83.364106906,2696.0
83.380818175,2662.0
83.397529444,2668.0
83.414240713,2666.0
83.430951982,2645.0
83.447663251,2713.0
83.464374519,2743.0
83.481085788,2652.0
83.497797057,2714.0
83.514508326,2664.0
83.531219595,2660.0
83.547930864,2723.0
83.564642133,2735.0
83.581353402,2766.0
83.598064671,2770.0
83.614775940,2729.0
83.631487209,2776.0
83.648198478,2747.0
83.664909747,2772.0
83.681621016,2810.0
83.698332285,2733.0
83.715043554,2737.0
83.731754823,2817.0
83.748466092,2739.0
83.765177361,2685.0
83.781888630,2664.0
83.798599899,2751.0
83.815311168,2751.0
83.832022437,2797.0
83.848733706,2752.0
83.865444975,2777.0
83.882156244,2739.0
83.898867513,2731.0
83.915578782,2773.0
83.932290051,2670.0
83.949001320,2767.0
83.965712589,2747.0
83.982423858,2744.0
83.999135127,2723.0
84.015846396,2739.0
84.032557665,2743.0
84.049268934,2623.0
84.065980203,2662.0
84.082691472,2686.0
84.099402741,2764.0
84.116114010,2720.0
84.132825279,2777.0
84.149536548,2698.0
84.166247817,2799.0
84.182959086,2824.0
84.199670355,2713.0
84.216381624,2916.0
84.233092893,2828.0
84.249804162,2683.0
84.266515431,2768.0
84.283226699,2741.0
84.299937968,2764.0
84.316649237,2774.0
84.333360506,2737.0
84.350071775,2873.0
84.366783044,2824.0
84.383494313,2756.0
84.400205582,2846.0
84.416916851,2749.0
84.433628120,2787.0
84.450339389,2771.0
84.467050658,2732.0
84.483761927,2755.0
84.500473196,2706.0
84.517184465,2885.0
84.533895734,2697.0
84.550607003,2778.0
84.567318272,2724.0
84.584029541,2751.0
84.600740810,2803.0
84.617452079,2802.0
84.634163348,2852.0
84.650874617,2736.0
84.667585886,2859.0
84.684297155,2798.0
84.701008424,2838.0
84.717719693,2740.0
84.734430962,2948.0
84.751142231,2711.0
84.767853500,2709.0
84.784564769,2708.0
84.801276038,2854.0
84.817987307,2867.0
84.834698576,2825.0
84.851409845,2814.0
84.868121114,2745.0
84.884832383,2766.0
84.901543652,2844.0
84.918254921,2775.0
84.934966190,2793.0
84.951677459,2751.0
84.968388728,2794.0
84.985099997,2780.0
85.001811266,2784.0
85.018522535,2875.0
85.035233804,2730.0
85.051945073,2751.0
85.068656342,2759.0
85.085367610,2862.0
85.102078879,2765.0
85.118790148,2888.0
85.135501417,2661.0
85.152212686,2884.0
85.168923955,2932.0
85.185635224,2877.0
85.202346493,2692.0
85.219057762,2964.0
85.235769031,2866.0
85.252480300,2826.0
85.269191569,2819.0
85.285902838,2828.0
85.302614107,2865.0
85.319325376,2865.0
85.336036645,2909.0
85.352747914,2820.0
85.369459183,2746.0
85.386170452,2937.0
85.402881721,2889.0
85.419592990,2763.0
85.436304259,2824.0
85.453015528,2871.0
85.469726797,2832.0
85.486438066,2976.0
85.503149335,2915.0
85.519860604,2857.0
85.536571873,2832.0
85.553283142,2978.0
85.569994411,2887.0
85.586705680,2972.0
85.603416949,2798.0
85.620128218,2898.0
85.636839487,2898.0
85.653550756,2927.0
85.670262025,2883.0
85.686973294,2936.0
85.703684563,2835.0
85.720395832,2930.0
85.737107101,2902.0
85.753818370,2878.0
85.770529639,3002.0
85.787240908,2894.0
85.803952177,2888.0
85.820663446,2951.0
85.837374715,2909.0
85.854085984,2822.0
85.870797253,2985.0
85.887508521,2936.0
85.904219790,2975.0
85.920931059,2835.0
85.937642328,2972.0
85.954353597,2931.0
85.971064866,2815.0
85.987776135,2892.0
86.004487404,2851.0
86.021198673,3006.0
86.037909942,3034.0
86.054621211,3087.0
86.071332480,3147.0
86.088043749,3114.0
86.104755018,2884.0
86.121466287,2983.0
86.138177556,2942.0
86.154888825,3027.0
86.171600094,3090.0
86.188311363,2968.0
86.205022632,3105.0
86.221733901,2956.0
86.238445170,3020.0
86.255156439,2981.0
86.271867708,2927.0
86.288578977,3024.0
86.305290246,2952.0
86.322001515,2854.0
86.338712784,2974.0
86.355424053,2955.0
86.372135322,2971.0
86.388846591,2971.0
86.405557860,3123.0
86.422269129,3041.0
86.438980398,2948.0
86.455691667,2969.0
86.472402936,3123.0
86.489114205,2922.0
86.505825474,2966.0
86.522536743,2925.0
86.539248012,3014.0
86.555959281,3008.0
86.572670550,3002.0
86.589381819,2982.0
86.606093088,3005.0
86.622804357,2954.0
86.639515626,3072.0
86.656226895,2941.0
86.672938164,2950.0
86.689649432,2910.0
86.706360701,3040.0
86.723071970,2882.0
86.739783239,2944.0
86.756494508,3088.0
86.773205777,2881.0
86.789917046,2994.0
86.806628315,2998.0
86.823339584,2982.0
86.840050853,2989.0
86.856762122,2960.0
86.873473391,3004.0
86.890184660,3021.0
86.906895929,3044.0
86.923607198,3009.0
86.940318467,2936.0
86.957029736,2953.0
86.973741005,2890.0
86.990452274,3019.0
87.007163543,3021.0
87.023874812,3003.0
87.040586081,2927.0
87.057297350,3032.0
87.074008619,2978.0
87.090719888,3057.0
87.107431157,3050.0
87.124142426,2972.0
87.140853695,3098.0
87.157564964,3052.0
87.174276233,3177.0
87.190987502,3040.0
87.207698771,2948.0
87.224410040,3102.0
87.241121309,3064.0
87.257832578,3088.0
87.274543847,3023.0
87.291255116,3049.0
87.307966385,3097.0
87.324677654,3032.0
87.341388923,3110.0
87.358100192,3055.0
87.374811461,3029.0
87.391522730,3019.0
87.408233999,3072.0
87.424945268,3040.0
87.441656537,3091.0
87.458367806,2983.0
87.475079075,2977.0
87.491790344,3056.0
87.508501612,2956.0
87.525212881,3029.0
87.541924150,3004.0
87.558635419,3069.0
87.575346688,3147.0
87.592057957,3062.0
87.608769226,3183.0
87.625480495,3102.0
87.642191764,3005.0
87.658903033,3038.0
87.675614302,3024.0
87.692325571,3071.0
87.709036840,3050.0
87.725748109,2985.0
87.742459378,3074.0
87.759170647,3092.0
87.775881916,3031.0
87.792593185,3141.0
87.809304454,3109.0
87.826015723,2914.0
87.842726992,2990.0
87.859438261,3150.0
87.876149530,3115.0
87.892860799,3099.0
87.909572068,3103.0
87.926283337,3046.0
87.942994606,3096.0
87.959705875,3056.0
87.976417144,3083.0
87.993128413,3165.0
88.009839682,3078.0
88.026550951,3093.0
88.043262220,3076.0
88.059973489,3087.0
88.076684758,3196.0
88.093396027,3164.0
88.110107296,3117.0
88.126818565,3146.0
88.143529834,3152.0
88.160241103,3049.0
88.176952372,3202.0
88.193663641,3168.0
88.210374910,3018.0
88.227086179,3226.0
88.243797448,3108.0
88.260508717,3152.0
88.277219986,3093.0
88.293931255,3141.0
88.310642523,3058.0
88.327353792,3197.0
88.344065061,3063.0
88.360776330,3201.0
88.377487599,3022.0
88.394198868,3086.0
88.410910137,3163.0
88.427621406,3156.0
88.444332675,3215.0
88.461043944,3180.0
88.477755213,3146.0
88.494466482,3195.0
88.511177751,3280.0
88.527889020,3154.0
88.544600289,3125.0
88.561311558,3255.0
88.578022827,3156.0
88.594734096,3236.0
88.611445365,3219.0
88.628156634,3240.0
88.644867903,3033.0
88.661579172,3220.0
88.678290441,3254.0
88.695001710,3242.0
88.711712979,3313.0
88.728424248,3210.0
88.745135517,3288.0
88.761846786,3328.0
88.778558055,3190.0
88.795269324,3298.0
88.811980593,3218.0
88.828691862,3351.0
88.845403131,3398.0
88.862114400,3375.0
88.878825669,3399.0
88.895536938,3428.0
88.912248207,3483.0
88.928959476,3464.0
88.945670745,3408.0
88.962382014,3424.0
88.979093283,3660.0
88.995804552,3552.0
89.012515821,3815.0
89.029227090,3895.0
89.045938359,4125.0
89.062649628,4677.0
89.079360897,4971.0
89.096072166,5900.0
89.112783434,6719.0
89.129494703,7096.0
89.146205972,7469.0
89.162917241,7779.0
89.179628510,7857.0
89.196339779,7989.0
89.213051048,7862.0
89.229762317,8113.0
89.246473586,7968.0
89.263184855,7907.0
89.279896124,7853.0
89.296607393,7789.0
89.313318662,7369.0
89.330029931,7404.0
89.346741200,7144.0
89.363452469,6973.0
89.380163738,6982.0
89.396875007,7184.0
89.413586276,7214.0
89.430297545,7030.0
89.447008814,7090.0
89.463720083,6832.0
89.480431352,6592.0
89.497142621,6735.0
89.513853890,6538.0
89.530565159,6474.0
89.547276428,6330.0
89.563987697,6187.0
89.580698966,5965.0
89.597410235,5701.0
89.614121504,5489.0
89.630832773,5307.0
89.647544042,5144.0
89.664255311,4979.0
89.680966580,4847.0
89.697677849,4669.0
89.714389118,4510.0
89.731100387,4379.0
89.747811656,4251.0
89.764522925,4178.0
89.781234194,4106.0
89.797945463,4016.0
89.814656732,3933.0
89.831368001,3936.0
89.848079270,3822.0
89.864790539,3767.0
89.881501808,3632.0
89.898213077,3677.0
89.914924345,3632.0
89.931635614,3565.0
89.948346883,3628.0
89.965058152,3742.0
89.981769421,3441.0
89.998480690,3567.0
90.015191959,3589.0
90.031903228,3509.0
90.048614497,3526.0
90.065325766,3492.0
90.082037035,3507.0
90.098748304,3400.0
90.115459573,3473.0
90.132170842,3541.0
90.148882111,3549.0
90.165593380,3569.0
90.182304649,3506.0
90.199015918,3442.0
90.215727187,3516.0
90.232438456,3410.0
90.249149725,3385.0
90.265860994,3426.0
90.282572263,3425.0
90.299283532,3307.0
90.315994801,3444.0
90.332706070,3398.0
90.349417339,3306.0
90.366128608,3222.0
90.382839877,3437.0
90.399551146,3432.0
90.416262415,3466.0
90.432973684,3335.0
90.449684953,3442.0
90.466396222,3355.0
90.483107491,3331.0
90.499818760,3349.0
90.516530029,3298.0
90.533241298,3338.0
90.549952567,3343.0
90.566663836,3346.0
90.583375105,3351.0
90.600086374,3395.0
90.616797643,3313.0
90.633508912,3295.0
90.650220181,3293.0
90.666931450,3305.0
90.683642719,3351.0
90.700353988,3334.0
90.717065257,3382.0
90.733776525,3228.0
90.750487794,3283.0
90.767199063,3259.0
90.783910332,3279.0
90.800621601,3333.0
90.817332870,3348.0
90.834044139,3267.0
90.850755408,3215.0
90.867466677,3372.0
90.884177946,3274.0
90.900889215,3385.0
90.917600484,3344.0
90.934311753,3335.0
90.951023022,3308.0
90.967734291,3403.0
90.984445560,3310.0
91.001156829,3339.0
91.017868098,3377.0
91.034579367,3218.0
91.051290636,3222.0
91.068001905,3273.0
91.084713174,3298.0
91.101424443,3382.0
91.118135712,3220.0
91.134846981,3330.0
91.151558250,3308.0
91.168269519,3329.0
91.184980788,3338.0
91.201692057,3242.0
91.218403326,3446.0
91.235114595,3364.0
91.251825864,3368.0
91.268537133,3365.0
91.285248402,3326.0
91.301959671,3347.0
91.318670940,3365.0
91.335382209,3398.0
91.352093478,3387.0
91.368804747,3350.0
91.385516016,3383.0
91.402227285,3356.0
91.418938554,3333.0
91.435649823,3328.0
91.452361092,3433.0
91.469072361,3310.0
91.485783630,3423.0
91.502494899,3457.0
91.519206168,3247.0
91.535917436,3405.0
91.552628705,3419.0
91.569339974,3399.0
91.586051243,3453.0
91.602762512,3272.0
91.619473781,3252.0
91.636185050,3298.0
91.652896319,3448.0
91.669607588,3445.0
91.686318857,3268.0
91.703030126,3349.0
91.719741395,3469.0
91.736452664,3409.0
91.753163933,3280.0
91.769875202,3430.0
91.786586471,3408.0
91.803297740,3444.0
91.820009009,3296.0
91.836720278,3478.0
91.853431547,3394.0
91.870142816,3395.0
91.886854085,3393.0
91.903565354,3458.0
91.920276623,3405.0
91.936987892,3406.0
91.953699161,3364.0
91.970410430,3411.0
91.987121699,3372.0
92.003832968,3357.0
92.020544237,3233.0
92.037255506,3430.0
92.053966775,3369.0
92.070678044,3396.0
92.087389313,3446.0
92.104100582,3410.0
92.120811851,3433.0
92.137523120,3384.0
92.154234389,3366.0
92.170945658,3365.0
92.187656927,3318.0
92.204368196,3379.0
92.221079465,3363.0
92.237790734,3398.0
92.254502003,3418.0
92.271213272,3491.0
92.287924541,3391.0
92.304635810,3289.0
92.321347079,3369.0
92.338058347,3419.0
92.354769616,3461.0
92.371480885,3432.0
92.388192154,3209.0
92.404903423,3334.0
92.421614692,3367.0
92.438325961,3335.0
92.455037230,3503.0
92.471748499,3379.0
92.488459768,3301.0
92.505171037,3370.0
92.521882306,3393.0
92.538593575,3428.0
92.555304844,3418.0
92.572016113,3436.0
92.588727382,3422.0
92.605438651,3406.0
92.622149920,3399.0
92.638861189,3439.0
92.655572458,3547.0
92.672283727,3437.0
92.688994996,3460.0
92.705706265,3323.0
92.722417534,3294.0
92.739128803,3260.0
92.755840072,3407.0
92.772551341,3405.0
92.789262610,3483.0
92.805973879,3337.0
92.822685148,3381.0
92.839396417,3527.0
92.856107686,3404.0
92.872818955,3442.0
92.889530224,3510.0
92.906241493,3397.0
92.922952762,3402.0
92.939664031,3409.0
92.956375300,3477.0
92.973086569,3399.0
92.989797838,3579.0
93.006509107,3428.0
93.023220376,3389.0
93.039931645,3329.0
93.056642914,3373.0
93.073354183,3369.0
93.090065452,3377.0
93.106776721,3543.0
93.123487990,3447.0
93.140199258,3410.0
93.156910527,3488.0
93.173621796,3470.0
93.190333065,3490.0
93.207044334,3351.0
93.223755603,3540.0
93.240466872,3506.0
93.257178141,3443.0
93.273889410,3382.0
93.290600679,3520.0
93.307311948,3427.0
93.324023217,3360.0
93.340734486,3466.0
93.357445755,3417.0
93.374157024,3487.0
93.390868293,3526.0
93.407579562,3421.0
93.424290831,3484.0
93.441002100,3410.0
93.457713369,3445.0
93.474424638,3449.0
93.491135907,3479.0
93.507847176,3515.0
93.524558445,3545.0
93.541269714,3435.0
93.557980983,3485.0
93.574692252,3528.0
93.591403521,3457.0
93.608114790,3609.0
93.624826059,3559.0
93.641537328,3490.0
93.658248597,3484.0
93.674959866,3400.0
93.691671135,3568.0
93.708382404,3368.0
93.725093673,3486.0
93.741804942,3487.0
93.758516211,3509.0
93.775227480,3600.0
93.791938749,3595.0
93.808650018,3434.0
93.825361287,3534.0
93.842072556,3619.0
93.858783825,3614.0
93.875495094,3522.0
93.892206363,3500.0
93.908917632,3622.0
93.925628901,3568.0
93.942340170,3523.0
93.959051438,3566.0
93.975762707,3612.0
93.992473976,3577.0
94.009185245,3594.0
94.025896514,3592.0
94.042607783,3711.0
94.059319052,3698.0
94.076030321,3750.0
94.092741590,3714.0
94.109452859,3824.0
94.126164128,3830.0
94.142875397,3949.0
94.159586666,3920.0
94.176297935,4161.0
94.193009204,4449.0
94.209720473,4842.0
94.226431742,5593.0
94.243143011,6632.0
94.259854280,7561.0
94.276565549,7954.0
94.293276818,7646.0
94.309988087,7365.0
94.326699356,6643.0
94.343410625,6249.0
94.360121894,5617.0
94.376833163,5294.0
94.393544432,5115.0
94.410255701,4841.0
94.426966970,4628.0
94.443678239,4523.0
94.460389508,4456.0
94.477100777,4537.0
94.493812046,4669.0
94.510523315,4823.0
94.527234584,4987.0
94.543945853,5469.0
94.560657122,5782.0
94.577368391,6051.0
94.594079660,6005.0
94.610790929,5771.0
94.627502198,5517.0
94.644213467,5045.0
94.660924736,5059.0
94.677636005,4845.0
94.694347274,4497.0
94.711058543,4373.0
94.727769812,4366.0
94.744481081,4214.0
94.761192349,4291.0
94.777903618,4239.0
94.794614887,4154.0
94.811326156,3973.0
94.828037425,3996.0
94.844748694,4041.0
94.861459963,3989.0
94.878171232,4038.0
94.894882501,3940.0
94.911593770,3861.0
94.928305039,3873.0
94.945016308,3920.0
94.961727577,3734.0
94.978438846,3820.0
94.995150115,3784.0
95.011861384,3760.0
95.028572653,3769.0
95.045283922,3746.0
95.061995191,3834.0
95.078706460,3640.0
95.095417729,3741.0
95.112128998,3791.0
95.128840267,3657.0
95.145551536,3734.0
95.162262805,3786.0
95.178974074,3713.0
95.195685343,3713.0
95.212396612,3759.0
95.229107881,3668.0
95.245819150,3605.0
95.262530419,3636.0
95.279241688,3697.0
95.295952957,3569.0
95.312664226,3594.0
95.329375495,3518.0
95.346086764,3632.0
95.362798033,3692.0
95.379509302,3564.0
95.396220571,3575.0
95.412931840,3549.0
95.429643109,3687.0
95.446354378,3636.0
95.463065647,3720.0
95.479776916,3630.0
95.496488185,3613.0
95.513199454,3617.0
95.529910723,3731.0
95.546621992,3533.0
95.563333260,3570.0
95.580044529,3600.0
95.596755798,3539.0
95.613467067,3557.0
95.630178336,3588.0
95.646889605,3505.0
95.663600874,3566.0
95.680312143,3504.0
95.697023412,3515.0
95.713734681,3555.0
95.730445950,3489.0
95.747157219,3560.0
95.763868488,3557.0
95.780579757,3555.0
95.797291026,3453.0
95.814002295,3575.0
95.830713564,3643.0
95.847424833,3558.0
95.864136102,3555.0
95.880847371,3637.0
95.897558640,3560.0
95.914269909,3508.0
95.930981178,3607.0
95.947692447,3550.0
95.964403716,3543.0
95.981114985,3465.0
95.997826254,3516.0
96.014537523,3611.0
96.031248792,3632.0
96.047960061,3588.0
96.064671330,3605.0
96.081382599,3534.0
96.098093868,3639.0
96.114805137,3511.0
96.131516406,3674.0
96.148227675,3581.0
96.164938944,3602.0
96.181650213,3590.0
96.198361482,3651.0
96.215072751,3518.0
96.231784020,3498.0
96.248495289,3513.0
96.265206558,3475.0
96.281917827,3567.0
96.298629096,3549.0
96.315340365,3638.0
96.332051634,3607.0
96.348762903,3606.0
96.365474171,3490.0
96.382185440,3493.0
96.398896709,3550.0
96.415607978,3488.0
96.432319247,3564.0
96.449030516,3485.0
96.465741785,3606.0
96.482453054,3667.0
96.499164323,3572.0
96.515875592,3525.0
96.532586861,3645.0
96.549298130,3682.0
96.566009399,3576.0
96.582720668,3481.0
96.599431937,3624.0
96.616143206,3460.0
96.632854475,3600.0
96.649565744,3563.0
96.666277013,3567.0
96.682988282,3565.0
96.699699551,3626.0
96.716410820,3635.0
96.733122089,3597.0
96.749833358,3545.0
96.766544627,3672.0
96.783255896,3644.0
96.799967165,3478.0
96.816678434,3623.0
96.833389703,3510.0
96.850100972,3469.0
96.866812241,3627.0
96.883523510,3556.0
96.900234779,3652.0
96.916946048,3544.0
96.933657317,3449.0
96.950368586,3598.0
96.967079855,3582.0
96.983791124,3590.0
97.000502393,3584.0
97.017213662,3609.0
97.033924931,3642.0
97.050636200,3584.0
97.067347469,3611.0
97.084058738,3593.0
97.100770007,3488.0
97.117481276,3533.0
97.134192545,3640.0
97.150903814,3571.0
97.167615083,3499.0
97.184326351,3565.0
97.201037620,3609.0
97.217748889,3559.0
97.234460158,3668.0
97.251171427,3635.0
97.267882696,3529.0
97.284593965,3622.0
97.301305234,3566.0
97.318016503,3543.0
97.334727772,3665.0
97.351439041,3583.0
97.368150310,3534.0
97.384861579,3626.0
97.401572848,3538.0
97.418284117,3612.0
97.434995386,3568.0
97.451706655,3577.0
97.468417924,3642.0
97.485129193,3579.0
97.501840462,3686.0
97.518551731,3640.0
97.535263000,3636.0
97.551974269,3684.0
97.568685538,3624.0
97.585396807,3666.0
97.602108076,3582.0
97.618819345,3577.0
97.635530614,3643.0
97.652241883,3588.0
97.668953152,3606.0
97.685664421,3699.0
97.702375690,3674.0
97.719086959,3541.0
97.735798228,3669.0
97.752509497,3545.0
97.769220766,3565.0
97.785932035,3501.0
97.802643304,3595.0
97.819354573,3605.0
97.836065842,3642.0
97.852777111,3643.0
97.869488380,3581.0
97.886199649,3623.0
97.902910918,3702.0
97.919622187,3502.0
97.936333456,3597.0
97.953044725,3549.0
97.969755994,3565.0
97.986467262,3628.0
98.003178531,3609.0
98.019889800,3547.0
98.036601069,3519.0
98.053312338,3608.0
98.070023607,3580.0
98.086734876,3696.0
98.103446145,3533.0
98.120157414,3761.0
98.136868683,3650.0
98.153579952,3663.0
98.170291221,3512.0
98.187002490,3682.0
98.203713759,3631.0
98.220425028,3686.0
98.237136297,3581.0
98.253847566,3701.0
98.270558835,3732.0
98.287270104,3672.0
98.303981373,3559.0
98.320692642,3759.0
98.337403911,3651.0
98.354115180,3746.0
98.370826449,3626.0
98.387537718,3599.0
98.404248987,3703.0
98.420960256,3563.0
98.437671525,3573.0
98.454382794,3609.0
98.471094063,3626.0
98.487805332,3641.0
98.504516601,3687.0
98.521227870,3771.0
98.537939139,3648.0
98.554650408,3651.0
98.571361677,3655.0
98.588072946,3648.0
98.604784215,3778.0
98.621495484,3597.0
98.638206753,3555.0
98.654918022,3606.0
98.671629291,3625.0
98.688340560,3824.0
98.705051829,3629.0
98.721763098,3566.0
98.738474367,3587.0
98.755185636,3631.0
98.771896905,3664.0
98.788608173,3621.0
98.805319442,3707.0
98.822030711,3637.0
98.838741980,3538.0
98.855453249,3655.0
98.872164518,3749.0
98.888875787,3710.0
98.905587056,3708.0
98.922298325,3704.0
98.939009594,3717.0
98.955720863,3570.0
98.972432132,3762.0
98.989143401,3637.0
99.005854670,3717.0
99.022565939,3659.0
99.039277208,3673.0
99.055988477,3680.0
99.072699746,3771.0
99.089411015,3602.0
99.106122284,3633.0
99.122833553,3608.0
99.139544822,3797.0
99.156256091,3668.0
99.172967360,3498.0
99.189678629,3623.0
99.206389898,3668.0
99.223101167,3724.0
99.239812436,3697.0
99.256523705,3722.0
99.273234974,3674.0
99.289946243,3684.0
99.306657512,3700.0
99.323368781,3578.0
99.340080050,3556.0
99.356791319,3648.0
99.373502588,3606.0
99.390213857,3729.0
99.406925126,3541.0
99.423636395,3737.0
99.440347664,3555.0
99.457058933,3730.0
99.473770202,3604.0
99.490481471,3688.0
99.507192740,3668.0
99.523904009,3724.0
99.540615278,3621.0
99.557326547,3703.0
99.574037816,3689.0
99.590749084,3735.0
99.607460353,3709.0
99.624171622,3651.0
99.640882891,3651.0
99.657594160,3694.0
99.674305429,3661.0
99.691016698,3629.0
99.707727967,3686.0
99.724439236,3649.0
99.741150505,3586.0
99.757861774,3743.0
99.774573043,3597.0
99.791284312,3761.0
99.807995581,3658.0
99.824706850,3634.0
99.841418119,3648.0
99.858129388,3759.0
99.874840657,3638.0
99.891551926,3743.0
99.908263195,3728.0
99.924974464,3627.0
99.941685733,3583.0
99.958397002,3761.0
99.975108271,3719.0
99.991819540,3708.0
