[Measurement conditions]
Sample identification,
Comment - 1,"finito"
Comment - 2,"Configuration=MRI TC-Basic Stage, Owner=User-1, Creation date=26-10-2009 9:18:44"
Comment - 3,"Goniometer=PW3050/60 (Theta/Theta); Minimum step size 2Theta:0.001; Minimum step size Omega:0.001"
Comment - 4,"Sample stage=MRI TC-Basic (PtRh heat strip)"
Comment - 5,"Diffractometer system=XPERT-PRO"
Comment - 6,"Measurement program=FlatStage, Owner=joana, Creation date=03-08-2011 15:43:53"
Anode material,Cu
K-Alpha1 wavelength,1.5405980
K-Alpha2 wavelength,1.5444260
Ratio K-Alpha2/K-Alpha1,0.500
Divergence slit,Fixed,0.76mm
Monochromator used,NO
Generator voltage, 45
Tube current, 40
File date and time,07/Dec/2012 01:31
Unit cell,
h k l, 0 0 0
Temperature [K],304
Scan axis,Gonio
Scan range,24.999999996,100.000175174
Scan step size,0.0167113
No. of points, 4488
Scan type,CONTINUOUS
Time per step,53.340
[Scan points]
Angle,Intensity
25.008355630,3349.0
25.025066899,3347.0
25.041778168,3331.0
25.058489437,3324.0
25.075200706,3336.0
25.091911975,3356.0
25.108623244,3434.0
25.125334513,3315.0
25.142045782,3321.0
25.158757051,3375.0
25.175468320,3488.0
25.192179589,3440.0
25.208890858,3427.0
25.225602127,3290.0
25.242313396,3287.0
25.259024665,3327.0
25.275735934,3325.0
25.292447203,3379.0
25.309158472,3350.0
25.325869741,3289.0
25.342581010,3260.0
25.359292279,3435.0
25.376003548,3319.0
25.392714817,3318.0
25.409426086,3278.0
25.426137354,3283.0
25.442848623,3387.0
25.459559892,3414.0
25.476271161,3216.0
25.492982430,3428.0
25.509693699,3285.0
25.526404968,3381.0
25.543116237,3354.0
25.559827506,3352.0
25.576538775,3437.0
25.593250044,3406.0
25.609961313,3361.0
25.626672582,3293.0
25.643383851,3290.0
25.660095120,3440.0
25.676806389,3462.0
25.693517658,3400.0
25.710228927,3323.0
25.726940196,3377.0
25.743651465,3431.0
25.760362734,3325.0
25.777074003,3460.0
25.793785272,3386.0
25.810496541,3338.0
25.827207810,3431.0
25.843919079,3425.0
25.860630348,3429.0
25.877341617,3459.0
25.894052886,3343.0
25.910764155,3379.0
25.927475424,3369.0
25.944186693,3298.0
25.960897962,3371.0
25.977609231,3434.0
25.994320500,3423.0
26.011031769,3330.0
26.027743038,3403.0
26.044454307,3439.0
26.061165576,3454.0
26.077876845,3412.0
26.094588114,3455.0
26.111299383,3398.0
26.128010652,3350.0
26.144721921,3384.0
26.161433190,3339.0
26.178144459,3420.0
26.194855728,3464.0
26.211566997,3347.0
26.228278265,3376.0
26.244989534,3411.0
26.261700803,3396.0
26.278412072,3460.0
26.295123341,3470.0
26.311834610,3412.0
26.328545879,3519.0
26.345257148,3576.0
26.361968417,3429.0
26.378679686,3448.0
26.395390955,3319.0
26.412102224,3347.0
26.428813493,3382.0
26.445524762,3461.0
26.462236031,3453.0
26.478947300,3354.0
26.495658569,3342.0
26.512369838,3337.0
26.529081107,3392.0
26.545792376,3459.0
26.562503645,3464.0
26.579214914,3357.0
26.595926183,3424.0
26.612637452,3287.0
26.629348721,3469.0
26.646059990,3445.0
26.662771259,3368.0
26.679482528,3381.0
26.696193797,3338.0
26.712905066,3509.0
26.729616335,3515.0
26.746327604,3405.0
26.763038873,3544.0
26.779750142,3404.0
26.796461411,3406.0
26.813172680,3436.0
26.829883949,3459.0
26.846595218,3376.0
26.863306487,3468.0
26.880017756,3395.0
26.896729025,3567.0
26.913440294,3446.0
26.930151563,3545.0
26.946862832,3388.0
26.963574101,3463.0
26.980285370,3385.0
26.996996639,3425.0
27.013707908,3508.0
27.030419176,3298.0
27.047130445,3466.0
27.063841714,3482.0
27.080552983,3521.0
27.097264252,3553.0
27.113975521,3425.0
27.130686790,3374.0
27.147398059,3509.0
27.164109328,3456.0
27.180820597,3415.0
27.197531866,3459.0
27.214243135,3503.0
27.230954404,3499.0
27.247665673,3461.0
27.264376942,3361.0
27.281088211,3412.0
27.297799480,3528.0
27.314510749,3576.0
27.331222018,3454.0
27.347933287,3338.0
27.364644556,3468.0
27.381355825,3516.0
27.398067094,3459.0
27.414778363,3402.0
27.431489632,3525.0
27.448200901,3503.0
27.464912170,3517.0
27.481623439,3494.0
27.498334708,3518.0
27.515045977,3433.0
27.531757246,3435.0
27.548468515,3439.0
27.565179784,3465.0
27.581891053,3464.0
27.598602322,3510.0
27.615313591,3491.0
27.632024860,3518.0
27.648736129,3435.0
27.665447398,3595.0
27.682158667,3638.0
27.698869936,3485.0
27.715581205,3394.0
27.732292474,3499.0
27.749003743,3436.0
27.765715012,3508.0
27.782426281,3530.0
27.799137550,3481.0
27.815848819,3539.0
27.832560087,3392.0
27.849271356,3488.0
27.865982625,3522.0
27.882693894,3579.0
27.899405163,3347.0
27.916116432,3494.0
27.932827701,3445.0
27.949538970,3479.0
27.966250239,3529.0
27.982961508,3482.0
27.999672777,3549.0
28.016384046,3442.0
28.033095315,3451.0
28.049806584,3448.0
28.066517853,3641.0
28.083229122,3425.0
28.099940391,3536.0
28.116651660,3569.0
28.133362929,3487.0
28.150074198,3404.0
28.166785467,3474.0
28.183496736,3512.0
28.200208005,3551.0
28.216919274,3366.0
28.233630543,3525.0
28.250341812,3452.0
28.267053081,3452.0
28.283764350,3520.0
28.300475619,3438.0
28.317186888,3542.0
28.333898157,3431.0
28.350609426,3682.0
28.367320695,3454.0
28.384031964,3466.0
28.400743233,3456.0
28.417454502,3532.0
28.434165771,3548.0
28.450877040,3477.0
28.467588309,3575.0
28.484299578,3523.0
28.501010847,3497.0
28.517722116,3548.0
28.534433385,3563.0
28.551144654,3583.0
28.567855923,3591.0
28.584567192,3432.0
28.601278461,3591.0
28.617989730,3505.0
28.634700999,3650.0
28.651412267,3439.0
28.668123536,3445.0
28.684834805,3606.0
28.701546074,3564.0
28.718257343,3533.0
28.734968612,3500.0
28.751679881,3638.0
28.768391150,3521.0
28.785102419,3529.0
28.801813688,3534.0
28.818524957,3365.0
28.835236226,3425.0
28.851947495,3549.0
28.868658764,3651.0
28.885370033,3504.0
28.902081302,3651.0
28.918792571,3588.0
28.935503840,3563.0
28.952215109,3580.0
28.968926378,3666.0
28.985637647,3638.0
29.002348916,3692.0
29.019060185,3611.0
29.035771454,3770.0
29.052482723,3709.0
29.069193992,3615.0
29.085905261,3641.0
29.102616530,3688.0
29.119327799,3645.0
29.136039068,3813.0
29.152750337,3874.0
29.169461606,3768.0
29.186172875,3889.0
29.202884144,3970.0
29.219595413,3939.0
29.236306682,4106.0
29.253017951,4182.0
29.269729220,4265.0
29.286440489,4339.0
29.303151758,4324.0
29.319863027,4455.0
29.336574296,4579.0
29.353285565,4777.0
29.369996834,4702.0
29.386708103,4807.0
29.403419372,4690.0
29.420130641,5122.0
29.436841910,5072.0
29.453553178,5124.0
29.470264447,5402.0
29.486975716,5379.0
29.503686985,5579.0
29.520398254,5705.0
29.537109523,5705.0
29.553820792,5866.0
29.570532061,5760.0
29.587243330,5837.0
29.603954599,5994.0
29.620665868,5928.0
29.637377137,5877.0
29.654088406,5770.0
29.670799675,5648.0
29.687510944,5654.0
29.704222213,5306.0
29.720933482,5265.0
29.737644751,5034.0
29.754356020,4731.0
29.771067289,4587.0
29.787778558,4316.0
29.804489827,4268.0
29.821201096,4032.0
29.837912365,3857.0
29.854623634,3909.0
29.871334903,3838.0
29.888046172,3768.0
29.904757441,3691.0
29.921468710,3751.0
29.938179979,3678.0
29.954891248,3687.0
29.971602517,3609.0
29.988313786,3723.0
30.005025055,3713.0
30.021736324,3549.0
30.038447593,3704.0
30.055158862,3611.0
30.071870131,3620.0
30.088581400,3518.0
30.105292669,3536.0
30.122003938,3674.0
30.138715207,3599.0
30.155426476,3597.0
30.172137745,3615.0
30.188849014,3550.0
30.205560283,3522.0
30.222271552,3540.0
30.238982821,3697.0
30.255694089,3623.0
30.272405358,3564.0
30.289116627,3621.0
30.305827896,3604.0
30.322539165,3606.0
30.339250434,3539.0
30.355961703,3674.0
30.372672972,3513.0
30.389384241,3487.0
30.406095510,3588.0
30.422806779,3574.0
30.439518048,3514.0
30.456229317,3627.0
30.472940586,3550.0
30.489651855,3597.0
30.506363124,3568.0
30.523074393,3611.0
30.539785662,3577.0
30.556496931,3533.0
30.573208200,3629.0
30.589919469,3589.0
30.606630738,3559.0
30.623342007,3627.0
30.640053276,3524.0
30.656764545,3735.0
30.673475814,3598.0
30.690187083,3678.0
30.706898352,3705.0
30.723609621,3632.0
30.740320890,3642.0
30.757032159,3674.0
30.773743428,3535.0
30.790454697,3630.0
30.807165966,3551.0
30.823877235,3591.0
30.840588504,3600.0
30.857299773,3661.0
30.874011042,3522.0
30.890722311,3665.0
30.907433580,3612.0
30.924144849,3692.0
30.940856118,3571.0
30.957567387,3696.0
30.974278656,3590.0
30.990989925,3587.0
31.007701194,3619.0
31.024412463,3635.0
31.041123732,3604.0
31.057835000,3575.0
31.074546269,3654.0
31.091257538,3633.0
31.107968807,3543.0
31.124680076,3537.0
31.141391345,3630.0
31.158102614,3673.0
31.174813883,3579.0
31.191525152,3619.0
31.208236421,3624.0
31.224947690,3595.0
31.241658959,3661.0
31.258370228,3680.0
31.275081497,3594.0
31.291792766,3575.0
31.308504035,3559.0
31.325215304,3671.0
31.341926573,3540.0
31.358637842,3686.0
31.375349111,3646.0
31.392060380,3691.0
31.408771649,3612.0
31.425482918,3685.0
31.442194187,3630.0
31.458905456,3668.0
31.475616725,3712.0
31.492327994,3660.0
31.509039263,3639.0
31.525750532,3610.0
31.542461801,3533.0
31.559173070,3659.0
31.575884339,3747.0
31.592595608,3565.0
31.609306877,3550.0
31.626018146,3561.0
31.642729415,3651.0
31.659440684,3638.0
31.676151953,3624.0
31.692863222,3672.0
31.709574491,3622.0
31.726285760,3578.0
31.742997029,3634.0
31.759708298,3515.0
31.776419567,3694.0
31.793130836,3744.0
31.809842105,3664.0
31.826553374,3643.0
31.843264643,3586.0
31.859975912,3700.0
31.876687180,3715.0
31.893398449,3596.0
31.910109718,3677.0
31.926820987,3633.0
31.943532256,3652.0
31.960243525,3633.0
31.976954794,3714.0
31.993666063,3608.0
32.010377332,3778.0
32.027088601,3656.0
32.043799870,3628.0
32.060511139,3715.0
32.077222408,3672.0
32.093933677,3749.0
32.110644946,3689.0
32.127356215,3680.0
32.144067484,3729.0
32.160778753,3711.0
32.177490022,3739.0
32.194201291,3605.0
32.210912560,3672.0
32.227623829,3734.0
32.244335098,3699.0
32.261046367,3781.0
32.277757636,3810.0
32.294468905,3755.0
32.311180174,3850.0
32.327891443,3734.0
32.344602712,3784.0
32.361313981,3687.0
32.378025250,3717.0
32.394736519,3779.0
32.411447788,3839.0
32.428159057,3762.0
32.444870326,3741.0
32.461581595,3813.0
32.478292864,3715.0
32.495004133,3739.0
32.511715402,3747.0
32.528426671,3803.0
32.545137940,3711.0
32.561849209,3723.0
32.578560478,3809.0
32.595271747,3754.0
32.611983016,3783.0
32.628694285,3828.0
32.645405554,3800.0
32.662116823,3847.0
32.678828091,3843.0
32.695539360,3720.0
32.712250629,3810.0
32.728961898,3824.0
32.745673167,3748.0
32.762384436,3823.0
32.779095705,3835.0
32.795806974,3788.0
32.812518243,3876.0
32.829229512,3810.0
32.845940781,3928.0
32.862652050,3773.0
32.879363319,3714.0
32.896074588,3767.0
32.912785857,3917.0
32.929497126,3814.0
32.946208395,3796.0
32.962919664,3931.0
32.979630933,3768.0
32.996342202,3740.0
33.013053471,3722.0
33.029764740,3878.0
33.046476009,3709.0
33.063187278,3834.0
33.079898547,3656.0
33.096609816,3775.0
33.113321085,3728.0
33.130032354,3742.0
33.146743623,3803.0
33.163454892,3695.0
33.180166161,3798.0
33.196877430,3719.0
33.213588699,3698.0
33.230299968,3715.0
33.247011237,3767.0
33.263722506,3711.0
33.280433775,3688.0
33.297145044,3596.0
33.313856313,3735.0
33.330567582,3685.0
33.347278851,3723.0
33.363990120,3838.0
33.380701389,3622.0
33.397412658,3776.0
33.414123927,3699.0
33.430835196,3713.0
33.447546465,3750.0
33.464257734,3636.0
33.480969002,3780.0
33.497680271,3804.0
33.514391540,3685.0
33.531102809,3695.0
33.547814078,3697.0
33.564525347,3733.0
33.581236616,3765.0
33.597947885,3799.0
33.614659154,3731.0
33.631370423,3706.0
33.648081692,3751.0
33.664792961,3809.0
33.681504230,3688.0
33.698215499,3729.0
33.714926768,3702.0
33.731638037,3759.0
33.748349306,3636.0
33.765060575,3848.0
33.781771844,3734.0
33.798483113,3697.0
33.815194382,3721.0
33.831905651,3747.0
33.848616920,3760.0
33.865328189,3684.0
33.882039458,3786.0
33.898750727,3744.0
33.915461996,3721.0
33.932173265,3808.0
33.948884534,3773.0
33.965595803,3806.0
33.982307072,3866.0
33.999018341,3887.0
34.015729610,3776.0
34.032440879,3875.0
34.049152148,3720.0
34.065863417,3747.0
34.082574686,3750.0
34.099285955,3705.0
34.115997224,3762.0
34.132708493,3789.0
34.149419762,3772.0
34.166131031,3618.0
34.182842300,3682.0
34.199553569,3759.0
34.216264838,3755.0
34.232976107,3819.0
34.249687376,3698.0
34.266398645,3915.0
34.283109913,3732.0
34.299821182,3781.0
34.316532451,3882.0
34.333243720,3841.0
34.349954989,3803.0
34.366666258,3879.0
34.383377527,3829.0
34.400088796,3789.0
34.416800065,3705.0
34.433511334,3749.0
34.450222603,3665.0
34.466933872,3752.0
34.483645141,3775.0
34.500356410,3882.0
34.517067679,3824.0
34.533778948,3827.0
34.550490217,3804.0
34.567201486,3799.0
34.583912755,3768.0
34.600624024,3742.0
34.617335293,3867.0
34.634046562,3937.0
34.650757831,3854.0
34.667469100,3821.0
34.684180369,3857.0
34.700891638,3738.0
34.717602907,3824.0
34.734314176,3852.0
34.751025445,3865.0
34.767736714,3669.0
34.784447983,3891.0
34.801159252,4039.0
34.817870521,3981.0
34.834581790,3915.0
34.851293059,3896.0
34.868004328,3929.0
34.884715597,3902.0
34.901426866,3965.0
34.918138135,3856.0
34.934849404,3968.0
34.951560673,4148.0
34.968271942,3941.0
34.984983211,4007.0
35.001694480,3951.0
35.018405749,4023.0
35.035117018,4004.0
35.051828287,4071.0
35.068539556,4087.0
35.085250825,4102.0
35.101962093,4000.0
35.118673362,4267.0
35.135384631,4156.0
35.152095900,4162.0
35.168807169,4257.0
35.185518438,4204.0
35.202229707,4264.0
35.218940976,4343.0
35.235652245,4197.0
35.252363514,4500.0
35.269074783,4285.0
35.285786052,4440.0
35.302497321,4541.0
35.319208590,4393.0
35.335919859,4522.0
35.352631128,4628.0
35.369342397,4574.0
35.386053666,4557.0
35.402764935,4639.0
35.419476204,4829.0
35.436187473,4794.0
35.452898742,4828.0
35.469610011,4781.0
35.486321280,4989.0
35.503032549,4951.0
35.519743818,4935.0
35.536455087,4959.0
35.553166356,4875.0
35.569877625,5229.0
35.586588894,5228.0
35.603300163,5169.0
35.620011432,5305.0
35.636722701,5223.0
35.653433970,5301.0
35.670145239,5310.0
35.686856508,5336.0
35.703567777,5557.0
35.720279046,5428.0
35.736990315,5578.0
35.753701584,5668.0
35.770412853,5754.0
35.787124122,5891.0
35.803835391,5903.0
35.820546660,6105.0
35.837257929,6419.0
35.853969198,6236.0
35.870680467,6438.0
35.887391736,6746.0
35.904103004,6850.0
35.920814273,7120.0
35.937525542,7497.0
35.954236811,7755.0
35.970948080,8085.0
35.987659349,8700.0
36.004370618,9069.0
36.021081887,9670.0
36.037793156,10173.0
36.054504425,10993.0
36.071215694,12005.0
36.087926963,13063.0
36.104638232,14085.0
36.121349501,15403.0
36.138060770,16736.0
36.154772039,18261.0
36.171483308,19511.0
36.188194577,21026.0
36.204905846,22499.0
36.221617115,24181.0
36.238328384,25689.0
36.255039653,27926.0
36.271750922,29478.0
36.288462191,30747.0
36.305173460,32919.0
36.321884729,34323.0
36.338595998,35993.0
36.355307267,37495.0
36.372018536,38787.0
36.388729805,39742.0
36.405441074,40476.0
36.422152343,41648.0
36.438863612,41907.0
36.455574881,41993.0
36.472286150,41572.0
36.488997419,40381.0
36.505708688,38986.0
36.522419957,36838.0
36.539131226,34811.0
36.555842495,32091.0
36.572553764,28865.0
36.589265033,25781.0
36.605976302,22619.0
36.622687571,20114.0
36.639398840,17220.0
36.656110109,14508.0
36.672821378,12946.0
36.689532647,11056.0
36.706243915,9617.0
36.722955184,8415.0
36.739666453,7319.0
36.756377722,6841.0
36.773088991,6312.0
36.789800260,5847.0
36.806511529,5507.0
36.823222798,5385.0
36.839934067,5285.0
36.856645336,4930.0
36.873356605,4908.0
36.890067874,4766.0
36.906779143,4715.0
36.923490412,4630.0
36.940201681,4507.0
36.956912950,4519.0
36.973624219,4481.0
36.990335488,4454.0
37.007046757,4498.0
37.023758026,4269.0
37.040469295,4260.0
37.057180564,4290.0
37.073891833,4267.0
37.090603102,4278.0
37.107314371,4209.0
37.124025640,4273.0
37.140736909,4230.0
37.157448178,4322.0
37.174159447,4279.0
37.190870716,4283.0
37.207581985,4303.0
37.224293254,4200.0
37.241004523,4208.0
37.257715792,4379.0
37.274427061,4205.0
37.291138330,4183.0
37.307849599,4157.0
37.324560868,4235.0
37.341272137,4236.0
37.357983406,4100.0
37.374694675,4216.0
37.391405944,4064.0
37.408117213,4095.0
37.424828482,4242.0
37.441539751,4079.0
37.458251020,4115.0
37.474962289,4234.0
37.491673558,4135.0
37.508384826,4113.0
37.525096095,4236.0
37.541807364,4124.0
37.558518633,4129.0
37.575229902,4028.0
37.591941171,4108.0
37.608652440,4181.0
37.625363709,4093.0
37.642074978,3988.0
37.658786247,4034.0
37.675497516,4126.0
37.692208785,4205.0
37.708920054,4214.0
37.725631323,4192.0
37.742342592,4219.0
37.759053861,4100.0
37.775765130,4146.0
37.792476399,4169.0
37.809187668,4074.0
37.825898937,4104.0
37.842610206,4129.0
37.859321475,4150.0
37.876032744,4217.0
37.892744013,4081.0
37.909455282,4121.0
37.926166551,4092.0
37.942877820,4091.0
37.959589089,4026.0
37.976300358,4250.0
37.993011627,4109.0
38.009722896,4181.0
38.026434165,4089.0
38.043145434,4072.0
38.059856703,4068.0
38.076567972,4149.0
38.093279241,4162.0
38.109990510,4077.0
38.126701779,4071.0
38.143413048,4073.0
38.160124317,4168.0
38.176835586,4143.0
38.193546855,4114.0
38.210258124,4115.0
38.226969393,4213.0
38.243680662,4298.0
38.260391931,4077.0
38.277103200,4123.0
38.293814469,4155.0
38.310525738,4069.0
38.327237006,4206.0
38.343948275,4165.0
38.360659544,4205.0
38.377370813,4073.0
38.394082082,4172.0
38.410793351,4318.0
38.427504620,4160.0
38.444215889,4231.0
38.460927158,4140.0
38.477638427,4268.0
38.494349696,4264.0
38.511060965,4397.0
38.527772234,4261.0
38.544483503,4338.0
38.561194772,4311.0
38.577906041,4364.0
38.594617310,4376.0
38.611328579,4302.0
38.628039848,4386.0
38.644751117,4347.0
38.661462386,4385.0
38.678173655,4457.0
38.694884924,4479.0
38.711596193,4412.0
38.728307462,4399.0
38.745018731,4478.0
38.761730000,4500.0
38.778441269,4523.0
38.795152538,4531.0
38.811863807,4533.0
38.828575076,4541.0
38.845286345,4708.0
38.861997614,4535.0
38.878708883,4548.0
38.895420152,4591.0
38.912131421,4580.0
38.928842690,4558.0
38.945553959,4516.0
38.962265228,4611.0
38.978976497,4556.0
38.995687766,4565.0
39.012399035,4686.0
39.029110304,4625.0
39.045821573,4552.0
39.062532842,4541.0
39.079244111,4593.0
39.095955380,4463.0
39.112666649,4603.0
39.129377917,4423.0
39.146089186,4363.0
39.162800455,4490.0
39.179511724,4429.0
39.196222993,4453.0
39.212934262,4452.0
39.229645531,4281.0
39.246356800,4334.0
39.263068069,4340.0
39.279779338,4327.0
39.296490607,4318.0
39.313201876,4246.0
39.329913145,4118.0
39.346624414,4195.0
39.363335683,4090.0
39.380046952,4157.0
39.396758221,4130.0
39.413469490,4149.0
39.430180759,4136.0
39.446892028,4127.0
39.463603297,4308.0
39.480314566,4272.0
39.497025835,4018.0
39.513737104,3988.0
39.530448373,4068.0
39.547159642,4122.0
39.563870911,4127.0
39.580582180,4127.0
39.597293449,4045.0
39.614004718,4047.0
39.630715987,4156.0
39.647427256,4042.0
39.664138525,4067.0
39.680849794,4222.0
39.697561063,4132.0
39.714272332,4176.0
39.730983601,4100.0
39.747694870,4034.0
39.764406139,4145.0
39.781117408,4053.0
39.797828677,4159.0
39.814539946,4159.0
39.831251215,4061.0
39.847962484,4100.0
39.864673753,4019.0
39.881385022,4116.0
39.898096291,4144.0
39.914807560,4058.0
39.931518828,4103.0
39.948230097,4097.0
39.964941366,4065.0
39.981652635,3921.0
39.998363904,4073.0
40.015075173,4017.0
40.031786442,4061.0
40.048497711,4053.0
40.065208980,4082.0
40.081920249,4012.0
40.098631518,3932.0
40.115342787,4054.0
40.132054056,3971.0
40.148765325,4034.0
40.165476594,3866.0
40.182187863,4041.0
40.198899132,3978.0
40.215610401,4013.0
40.232321670,4001.0
40.249032939,4104.0
40.265744208,4007.0
40.282455477,4060.0
40.299166746,3949.0
40.315878015,3944.0
40.332589284,4102.0
40.349300553,4065.0
40.366011822,4096.0
40.382723091,3991.0
40.399434360,4013.0
40.416145629,3929.0
40.432856898,3974.0
40.449568167,4017.0
40.466279436,3959.0
40.482990705,4078.0
40.499701974,3889.0
40.516413243,4107.0
40.533124512,3949.0
40.549835781,3952.0
40.566547050,4036.0
40.583258319,3949.0
40.599969588,4066.0
40.616680857,3892.0
40.633392126,4107.0
40.650103395,4082.0
40.666814664,4122.0
40.683525933,4008.0
40.700237202,4103.0
40.716948471,4119.0
40.733659739,4096.0
40.750371008,4066.0
40.767082277,4060.0
40.783793546,3965.0
40.800504815,4040.0
40.817216084,4003.0
40.833927353,4125.0
40.850638622,4155.0
40.867349891,4088.0
40.884061160,4058.0
40.900772429,4000.0
40.917483698,4070.0
40.934194967,3952.0
40.950906236,4000.0
40.967617505,4015.0
40.984328774,4022.0
41.001040043,4108.0
41.017751312,3977.0
41.034462581,3955.0
41.051173850,4066.0
41.067885119,4057.0
41.084596388,4140.0
41.101307657,4047.0
41.118018926,4047.0
41.134730195,4102.0
41.151441464,4173.0
41.168152733,4162.0
41.184864002,4113.0
41.201575271,4149.0
41.218286540,4079.0
41.234997809,4111.0
41.251709078,4072.0
41.268420347,4045.0
41.285131616,4025.0
41.301842885,4207.0
41.318554154,4147.0
41.335265423,4093.0
41.351976692,4321.0
41.368687961,4181.0
41.385399230,4188.0
41.402110499,4147.0
41.418821768,4328.0
41.435533037,4336.0
41.452244306,4331.0
41.468955575,4292.0
41.485666844,4307.0
41.502378113,4355.0
41.519089382,4280.0
41.535800651,4457.0
41.552511919,4460.0
41.569223188,4492.0
41.585934457,4647.0
41.602645726,4626.0
41.619356995,4552.0
41.636068264,4899.0
41.652779533,4771.0
41.669490802,4892.0
41.686202071,4964.0
41.702913340,4970.0
41.719624609,5265.0
41.736335878,5380.0
41.753047147,5552.0
41.769758416,5857.0
41.786469685,5877.0
41.803180954,6127.0
41.819892223,6410.0
41.836603492,6408.0
41.853314761,6825.0
41.870026030,7280.0
41.886737299,7684.0
41.903448568,7963.0
41.920159837,8271.0
41.936871106,8604.0
41.953582375,8838.0
41.970293644,9380.0
41.987004913,10011.0
42.003716182,10591.0
42.020427451,11098.0
42.037138720,11475.0
42.053849989,11921.0
42.070561258,12601.0
42.087272527,12946.0
42.103983796,13273.0
42.120695065,13895.0
42.137406334,14363.0
42.154117603,14567.0
42.170828872,14688.0
42.187540141,14980.0
42.204251410,15215.0
42.220962679,15158.0
42.237673948,15093.0
42.254385217,14826.0
42.271096486,14672.0
42.287807755,14371.0
42.304519024,14095.0
42.321230293,13370.0
42.337941562,12966.0
42.354652830,12368.0
42.371364099,11859.0
42.388075368,11387.0
42.404786637,10362.0
42.421497906,10123.0
42.438209175,9451.0
42.454920444,8833.0
42.471631713,8194.0
42.488342982,7746.0
42.505054251,7375.0
42.521765520,7034.0
42.538476789,6325.0
42.555188058,6219.0
42.571899327,5743.0
42.588610596,5677.0
42.605321865,5528.0
42.622033134,5315.0
42.638744403,5069.0
42.655455672,5010.0
42.672166941,4860.0
42.688878210,4868.0
42.705589479,4862.0
42.722300748,4784.0
42.739012017,4687.0
42.755723286,4641.0
42.772434555,4510.0
42.789145824,4657.0
42.805857093,4738.0
42.822568362,4506.0
42.839279631,4732.0
42.855990900,4967.0
42.872702169,4998.0
42.889413438,5296.0
42.906124707,5376.0
42.922835976,5551.0
42.939547245,5723.0
42.956258514,5678.0
42.972969783,5681.0
42.989681052,5690.0
43.006392321,5875.0
43.023103590,6025.0
43.039814859,6142.0
43.056526128,6363.0
43.073237397,6458.0
43.089948666,6595.0
43.106659935,7075.0
43.123371204,7599.0
43.140082473,8446.0
43.156793741,9559.0
43.173505010,10741.0
43.190216279,11709.0
43.206927548,13122.0
43.223638817,13591.0
43.240350086,13830.0
43.257061355,13364.0
43.273772624,13651.0
43.290483893,14060.0
43.307195162,14457.0
43.323906431,14883.0
43.340617700,15908.0
43.357328969,16304.0
43.374040238,16606.0
43.390751507,17706.0
43.407462776,19086.0
43.424174045,21100.0
43.440885314,23907.0
43.457596583,28393.0
43.474307852,33513.0
43.491019121,35187.0
43.507730390,33874.0
43.524441659,33290.0
43.541152928,33793.0
43.557864197,34788.0
43.574575466,34772.0
43.591286735,32751.0
43.607998004,28736.0
43.624709273,22831.0
43.641420542,19324.0
43.658131811,17879.0
43.674843080,16329.0
43.691554349,15143.0
43.708265618,12771.0
43.724976887,10051.0
43.741688156,7765.0
43.758399425,6412.0
43.775110694,5852.0
43.791821963,5523.0
43.808533232,5122.0
43.825244501,4985.0
43.841955770,4890.0
43.858667039,4790.0
43.875378308,4666.0
43.892089577,4556.0
43.908800846,4518.0
43.925512115,4497.0
43.942223384,4485.0
43.958934652,4222.0
43.975645921,4296.0
43.992357190,4341.0
44.009068459,4341.0
44.025779728,4270.0
44.042490997,4332.0
44.059202266,4255.0
44.075913535,4345.0
44.092624804,4240.0
44.109336073,4283.0
44.126047342,4288.0
44.142758611,4182.0
44.159469880,4271.0
44.176181149,4253.0
44.192892418,4144.0
44.209603687,4219.0
44.226314956,4126.0
44.243026225,4130.0
44.259737494,4164.0
44.276448763,4146.0
44.293160032,4142.0
44.309871301,4140.0
44.326582570,4177.0
44.343293839,4193.0
44.360005108,4075.0
44.376716377,4299.0
44.393427646,4180.0
44.410138915,4127.0
44.426850184,4056.0
44.443561453,4199.0
44.460272722,4154.0
44.476983991,4138.0
44.493695260,4193.0
44.510406529,4023.0
44.527117798,4066.0
44.543829067,4306.0
44.560540336,4095.0
44.577251605,4084.0
44.593962874,4115.0
44.610674143,4114.0
44.627385412,4105.0
44.644096681,4111.0
44.660807950,4189.0
44.677519219,3968.0
44.694230488,4121.0
44.710941757,4187.0
44.727653026,4126.0
44.744364295,4154.0
44.761075564,4189.0
44.777786832,4121.0
44.794498101,3980.0
44.811209370,4226.0
44.827920639,4133.0
44.844631908,3998.0
44.861343177,4037.0
44.878054446,4218.0
44.894765715,4076.0
44.911476984,4172.0
44.928188253,4168.0
44.944899522,4115.0
44.961610791,4167.0
44.978322060,4111.0
44.995033329,4094.0
45.011744598,4105.0
45.028455867,4079.0
45.045167136,4139.0
45.061878405,4048.0
45.078589674,4013.0
45.095300943,4080.0
45.112012212,4123.0
45.128723481,4012.0
45.145434750,4038.0
45.162146019,4072.0
45.178857288,4022.0
45.195568557,4124.0
45.212279826,4101.0
45.228991095,4129.0
45.245702364,4106.0
45.262413633,4198.0
45.279124902,4000.0
45.295836171,4045.0
45.312547440,4122.0
45.329258709,4221.0
45.345969978,4010.0
45.362681247,4058.0
45.379392516,4132.0
45.396103785,4164.0
45.412815054,4153.0
45.429526323,4230.0
45.446237592,4101.0
45.462948861,4202.0
45.479660130,4150.0
45.496371399,4191.0
45.513082668,4134.0
45.529793937,4205.0
45.546505206,4149.0
45.563216475,4039.0
45.579927743,4167.0
45.596639012,4134.0
45.613350281,4107.0
45.630061550,4116.0
45.646772819,4031.0
45.663484088,4003.0
45.680195357,4267.0
45.696906626,4057.0
45.713617895,4109.0
45.730329164,4069.0
45.747040433,3961.0
45.763751702,4192.0
45.780462971,4092.0
45.797174240,4173.0
45.813885509,4160.0
45.830596778,4154.0
45.847308047,4083.0
45.864019316,4028.0
45.880730585,4069.0
45.897441854,4019.0
45.914153123,3979.0
45.930864392,4102.0
45.947575661,3988.0
45.964286930,4055.0
45.980998199,3992.0
45.997709468,4259.0
46.014420737,4043.0
46.031132006,4157.0
46.047843275,4003.0
46.064554544,4040.0
46.081265813,4077.0
46.097977082,4129.0
46.114688351,4147.0
46.131399620,4025.0
46.148110889,4134.0
46.164822158,4107.0
46.181533427,4137.0
46.198244696,4080.0
46.214955965,4144.0
46.231667234,3976.0
46.248378503,4079.0
46.265089772,4122.0
46.281801041,4163.0
46.298512310,4223.0
46.315223579,4197.0
46.331934848,4124.0
46.348646117,4101.0
46.365357386,4121.0
46.382068654,4230.0
46.398779923,4117.0
46.415491192,4266.0
46.432202461,4507.0
46.448913730,4683.0
46.465624999,5309.0
46.482336268,5994.0
46.499047537,6507.0
46.515758806,6900.0
46.532470075,5977.0
46.549181344,5184.0
46.565892613,4745.0
46.582603882,4730.0
46.599315151,4867.0
46.616026420,5179.0
46.632737689,5420.0
46.649448958,5294.0
46.666160227,4780.0
46.682871496,4463.0
46.699582765,4123.0
46.716294034,4064.0
46.733005303,4216.0
46.749716572,4130.0
46.766427841,4141.0
46.783139110,4052.0
46.799850379,4207.0
46.816561648,4029.0
46.833272917,4002.0
46.849984186,4058.0
46.866695455,4029.0
46.883406724,4064.0
46.900117993,4053.0
46.916829262,3997.0
46.933540531,4035.0
46.950251800,4072.0
46.966963069,4212.0
46.983674338,4124.0
47.000385607,4087.0
47.017096876,4014.0
47.033808145,4094.0
47.050519414,4004.0
47.067230683,4046.0
47.083941952,4073.0
47.100653221,4051.0
47.117364490,4047.0
47.134075759,3997.0
47.150787028,4056.0
47.167498297,3899.0
47.184209565,3978.0
47.200920834,4053.0
47.217632103,3978.0
47.234343372,3965.0
47.251054641,4134.0
47.267765910,4104.0
47.284477179,4177.0
47.301188448,3921.0
47.317899717,4074.0
47.334610986,4131.0
47.351322255,4011.0
47.368033524,4171.0
47.384744793,4030.0
47.401456062,4158.0
47.418167331,4100.0
47.434878600,4080.0
47.451589869,3999.0
47.468301138,4011.0
47.485012407,4031.0
47.501723676,4084.0
47.518434945,4037.0
47.535146214,4094.0
47.551857483,3903.0
47.568568752,4081.0
47.585280021,3998.0
47.601991290,4063.0
47.618702559,3877.0
47.635413828,4041.0
47.652125097,4172.0
47.668836366,3971.0
47.685547635,4114.0
47.702258904,3992.0
47.718970173,4066.0
47.735681442,4006.0
47.752392711,4139.0
47.769103980,3951.0
47.785815249,4058.0
47.802526518,4017.0
47.819237787,4020.0
47.835949056,4006.0
47.852660325,4008.0
47.869371594,4118.0
47.886082863,4002.0
47.902794132,4075.0
47.919505401,4116.0
47.936216670,3967.0
47.952927939,3997.0
47.969639208,4057.0
47.986350477,4072.0
48.003061745,3903.0
48.019773014,3919.0
48.036484283,4023.0
48.053195552,3900.0
48.069906821,3937.0
48.086618090,3964.0
48.103329359,4081.0
48.120040628,4078.0
48.136751897,3994.0
48.153463166,4124.0
48.170174435,3954.0
48.186885704,3967.0
48.203596973,4042.0
48.220308242,4062.0
48.237019511,4066.0
48.253730780,3958.0
48.270442049,3998.0
48.287153318,4054.0
48.303864587,4057.0
48.320575856,4102.0
48.337287125,4130.0
48.353998394,4149.0
48.370709663,3984.0
48.387420932,4093.0
48.404132201,4100.0
48.420843470,4131.0
48.437554739,4076.0
48.454266008,4204.0
48.470977277,4055.0
48.487688546,4071.0
48.504399815,4102.0
48.521111084,4173.0
48.537822353,4214.0
48.554533622,4167.0
48.571244891,4112.0
48.587956160,4356.0
48.604667429,4142.0
48.621378698,4205.0
48.638089967,4200.0
48.654801236,4344.0
48.671512505,4207.0
48.688223774,4292.0
48.704935043,4430.0
48.721646312,4346.0
48.738357581,4404.0
48.755068850,4389.0
48.771780119,4413.0
48.788491388,4305.0
48.805202656,4397.0
48.821913925,4532.0
48.838625194,4364.0
48.855336463,4586.0
48.872047732,4521.0
48.888759001,4319.0
48.905470270,4480.0
48.922181539,4496.0
48.938892808,4411.0
48.955604077,4404.0
48.972315346,4467.0
48.989026615,4426.0
49.005737884,4411.0
49.022449153,4370.0
49.039160422,4493.0
49.055871691,4427.0
49.072582960,4382.0
49.089294229,4378.0
49.106005498,4357.0
49.122716767,4323.0
49.139428036,4345.0
49.156139305,4364.0
49.172850574,4337.0
49.189561843,4369.0
49.206273112,4393.0
49.222984381,4163.0
49.239695650,4216.0
49.256406919,4187.0
49.273118188,4143.0
49.289829457,4107.0
49.306540726,4253.0
49.323251995,4181.0
49.339963264,4215.0
49.356674533,4169.0
49.373385802,4147.0
49.390097071,4174.0
49.406808340,4129.0
49.423519609,4263.0
49.440230878,4125.0
49.456942147,4159.0
49.473653416,4180.0
49.490364685,4170.0
49.507075954,4279.0
49.523787223,4171.0
49.540498492,4243.0
49.557209761,4227.0
49.573921030,4210.0
49.590632299,4161.0
49.607343567,4126.0
49.624054836,4207.0
49.640766105,4136.0
49.657477374,4016.0
49.674188643,4068.0
49.690899912,4140.0
49.707611181,4063.0
49.724322450,4161.0
49.741033719,4180.0
49.757744988,4268.0
49.774456257,4190.0
49.791167526,4172.0
49.807878795,4096.0
49.824590064,4224.0
49.841301333,4227.0
49.858012602,4275.0
49.874723871,4196.0
49.891435140,4195.0
49.908146409,4255.0
49.924857678,4165.0
49.941568947,4357.0
49.958280216,4333.0
49.974991485,4452.0
49.991702754,4597.0
50.008414023,4618.0
50.025125292,4727.0
50.041836561,4581.0
50.058547830,4512.0
50.075259099,4522.0
50.091970368,4451.0
50.108681637,4637.0
50.125392906,4587.0
50.142104175,4794.0
50.158815444,4803.0
50.175526713,4668.0
50.192237982,4799.0
50.208949251,4877.0
50.225660520,4857.0
50.242371789,5237.0
50.259083058,5558.0
50.275794327,5795.0
50.292505596,6439.0
50.309216865,7262.0
50.325928134,8489.0
50.342639403,9500.0
50.359350672,10108.0
50.376061941,10315.0
50.392773210,9937.0
50.409484478,9820.0
50.426195747,9816.0
50.442907016,9768.0
50.459618285,10115.0
50.476329554,10504.0
50.493040823,11005.0
50.509752092,11081.0
50.526463361,11453.0
50.543174630,11937.0
50.559885899,12942.0
50.576597168,14912.0
50.593308437,18020.0
50.610019706,21748.0
50.626730975,25981.0
50.643442244,29955.0
50.660153513,32663.0
50.676864782,35196.0
50.693576051,35126.0
50.710287320,33792.0
50.726998589,31628.0
50.743709858,28713.0
50.760421127,26094.0
50.777132396,24072.0
50.793843665,22096.0
50.810554934,21331.0
50.827266203,19934.0
50.843977472,18299.0
50.860688741,16493.0
50.877400010,13915.0
50.894111279,11492.0
50.910822548,9074.0
50.927533817,7544.0
50.944245086,6577.0
50.960956355,5960.0
50.977667624,5308.0
50.994378893,5239.0
51.011090162,4981.0
51.027801431,4720.0
51.044512700,4764.0
51.061223969,4511.0
51.077935238,4593.0
51.094646507,4468.0
51.111357776,4352.0
51.128069045,4348.0
51.144780314,4479.0
51.161491583,4292.0
51.178202852,4275.0
51.194914121,4293.0
51.211625390,4262.0
51.228336658,4193.0
51.245047927,4278.0
51.261759196,4176.0
51.278470465,4260.0
51.295181734,4033.0
51.311893003,4118.0
51.328604272,4188.0
51.345315541,4114.0
51.362026810,4189.0
51.378738079,4216.0
51.395449348,4225.0
51.412160617,4103.0
51.428871886,4239.0
51.445583155,4027.0
51.462294424,4120.0
51.479005693,4175.0
51.495716962,4300.0
51.512428231,4091.0
51.529139500,4334.0
51.545850769,4205.0
51.562562038,4214.0
51.579273307,4000.0
51.595984576,4112.0
51.612695845,4095.0
51.629407114,4139.0
51.646118383,4090.0
51.662829652,4062.0
51.679540921,4090.0
51.696252190,4147.0
51.712963459,4037.0
51.729674728,4182.0
51.746385997,4170.0
51.763097266,4120.0
51.779808535,4096.0
51.796519804,4078.0
51.813231073,4070.0
51.829942342,4108.0
51.846653611,4138.0
51.863364880,4034.0
51.880076149,4158.0
51.896787418,4130.0
51.913498687,4089.0
51.930209956,4183.0
51.946921225,4242.0
51.963632494,4065.0
51.980343763,4171.0
51.997055032,4021.0
52.013766301,4093.0
52.030477569,4245.0
52.047188838,4282.0
52.063900107,4248.0
52.080611376,4219.0
52.097322645,4279.0
52.114033914,4265.0
52.130745183,4312.0
52.147456452,4191.0
52.164167721,4300.0
52.180878990,4376.0
52.197590259,4271.0
52.214301528,4391.0
52.231012797,4398.0
52.247724066,4295.0
52.264435335,4441.0
52.281146604,4353.0
52.297857873,4289.0
52.314569142,4411.0
52.331280411,4545.0
52.347991680,4446.0
52.364702949,4479.0
52.381414218,4527.0
52.398125487,4445.0
52.414836756,4563.0
52.431548025,4532.0
52.448259294,4354.0
52.464970563,4535.0
52.481681832,4315.0
52.498393101,4406.0
52.515104370,4352.0
52.531815639,4484.0
52.548526908,4375.0
52.565238177,4201.0
52.581949446,4400.0
52.598660715,4355.0
52.615371984,4161.0
52.632083253,4255.0
52.648794522,4147.0
52.665505791,4119.0
52.682217060,4191.0
52.698928329,4126.0
52.715639598,4142.0
52.732350867,4117.0
52.749062136,4157.0
52.765773405,4125.0
52.782484674,4156.0
52.799195943,4105.0
52.815907212,4056.0
52.832618480,4051.0
52.849329749,4212.0
52.866041018,4040.0
52.882752287,4170.0
52.899463556,4128.0
52.916174825,4110.0
52.932886094,4062.0
52.949597363,4130.0
52.966308632,4024.0
52.983019901,3918.0
52.999731170,4091.0
53.016442439,4156.0
53.033153708,4138.0
53.049864977,4195.0
53.066576246,4039.0
53.083287515,4029.0
53.099998784,3943.0
53.116710053,3958.0
53.133421322,4003.0
53.150132591,3975.0
53.166843860,4084.0
53.183555129,4067.0
53.200266398,4215.0
53.216977667,3950.0
53.233688936,4042.0
53.250400205,3912.0
53.267111474,4173.0
53.283822743,4011.0
53.300534012,4001.0
53.317245281,4058.0
53.333956550,4070.0
53.350667819,4003.0
53.367379088,4126.0
53.384090357,4149.0
53.400801626,4089.0
53.417512895,4151.0
53.434224164,4031.0
53.450935433,4116.0
53.467646702,4019.0
53.484357971,4036.0
53.501069240,4008.0
53.517780509,4115.0
53.534491778,4125.0
53.551203047,3998.0
53.567914316,4038.0
53.584625585,3996.0
53.601336854,4101.0
53.618048123,4179.0
53.634759391,3991.0
53.651470660,4106.0
53.668181929,4160.0
53.684893198,4055.0
53.701604467,4224.0
53.718315736,4067.0
53.735027005,4031.0
53.751738274,4186.0
53.768449543,4109.0
53.785160812,4085.0
53.801872081,3985.0
53.818583350,4099.0
53.835294619,4030.0
53.852005888,4189.0
53.868717157,4000.0
53.885428426,4028.0
53.902139695,4104.0
53.918850964,4007.0
53.935562233,4019.0
53.952273502,4079.0
53.968984771,3925.0
53.985696040,4097.0
54.002407309,4007.0
54.019118578,4131.0
54.035829847,4034.0
54.052541116,4069.0
54.069252385,3966.0
54.085963654,4029.0
54.102674923,4009.0
54.119386192,4014.0
54.136097461,4150.0
54.152808730,4129.0
54.169519999,4051.0
54.186231268,4155.0
54.202942537,4032.0
54.219653806,4095.0
54.236365075,4040.0
54.253076344,4033.0
54.269787613,4225.0
54.286498882,4150.0
54.303210151,3988.0
54.319921420,4031.0
54.336632689,4076.0
54.353343958,4163.0
54.370055227,4190.0
54.386766496,4135.0
54.403477765,4163.0
54.420189034,4095.0
54.436900303,4065.0
54.453611571,4135.0
54.470322840,3926.0
54.487034109,4026.0
54.503745378,4051.0
54.520456647,3956.0
54.537167916,4063.0
54.553879185,4110.0
54.570590454,3973.0
54.587301723,4019.0
54.604012992,4071.0
54.620724261,4149.0
54.637435530,4068.0
54.654146799,4056.0
54.670858068,4119.0
54.687569337,4085.0
54.704280606,4143.0
54.720991875,4052.0
54.737703144,3910.0
54.754414413,4202.0
54.771125682,4039.0
54.787836951,4127.0
54.804548220,4092.0
54.821259489,4006.0
54.837970758,4084.0
54.854682027,4081.0
54.871393296,4003.0
54.888104565,4082.0
54.904815834,4092.0
54.921527103,3995.0
54.938238372,4084.0
54.954949641,4021.0
54.971660910,3982.0
54.988372179,4132.0
55.005083448,3954.0
55.021794717,4113.0
55.038505986,3961.0
55.055217255,4139.0
55.071928524,4077.0
55.088639793,4034.0
55.105351062,4023.0
55.122062331,4252.0
55.138773600,4070.0
55.155484869,4012.0
55.172196138,4092.0
55.188907407,4196.0
55.205618676,4075.0
55.222329945,4032.0
55.239041214,4086.0
55.255752482,4076.0
55.272463751,4210.0
55.289175020,4057.0
55.305886289,4092.0
55.322597558,4066.0
55.339308827,4038.0
55.356020096,4094.0
55.372731365,4148.0
55.389442634,4013.0
55.406153903,4104.0
55.422865172,4107.0
55.439576441,4060.0
55.456287710,4137.0
55.472998979,4084.0
55.489710248,4018.0
55.506421517,4001.0
55.523132786,3972.0
55.539844055,4082.0
55.556555324,3948.0
55.573266593,4074.0
55.589977862,4084.0
55.606689131,4019.0
55.623400400,4167.0
55.640111669,3968.0
55.656822938,4115.0
55.673534207,4035.0
55.690245476,4003.0
55.706956745,4050.0
55.723668014,4031.0
55.740379283,4026.0
55.757090552,4037.0
55.773801821,4048.0
55.790513090,3998.0
55.807224359,4090.0
55.823935628,4005.0
55.840646897,3944.0
55.857358166,4003.0
55.874069435,3989.0
55.890780704,4088.0
55.907491973,4074.0
55.924203242,4071.0
55.940914511,4039.0
55.957625780,3979.0
55.974337049,4009.0
55.991048318,4041.0
56.007759587,4100.0
56.024470856,4056.0
56.041182125,3961.0
56.057893393,4014.0
56.074604662,4051.0
56.091315931,3934.0
56.108027200,4097.0
56.124738469,4020.0
56.141449738,3972.0
56.158161007,4213.0
56.174872276,3936.0
56.191583545,4156.0
56.208294814,4118.0
56.225006083,4105.0
56.241717352,4132.0
56.258428621,4040.0
56.275139890,4052.0
56.291851159,4088.0
56.308562428,4067.0
56.325273697,4002.0
56.341984966,4005.0
56.358696235,3991.0
56.375407504,4018.0
56.392118773,4097.0
56.408830042,4046.0
56.425541311,3957.0
56.442252580,4154.0
56.458963849,4113.0
56.475675118,4113.0
56.492386387,4149.0
56.509097656,4141.0
56.525808925,4114.0
56.542520194,4025.0
56.559231463,4096.0
56.575942732,4001.0
56.592654001,4100.0
56.609365270,4077.0
56.626076539,4115.0
56.642787808,4158.0
56.659499077,4069.0
56.676210346,3985.0
56.692921615,4152.0
56.709632884,4007.0
56.726344153,4037.0
56.743055422,4004.0
56.759766691,4132.0
56.776477960,4146.0
56.793189229,4020.0
56.809900498,4082.0
56.826611767,4022.0
56.843323036,4119.0
56.860034304,3905.0
56.876745573,4094.0
56.893456842,4154.0
56.910168111,4183.0
56.926879380,4000.0
56.943590649,4067.0
56.960301918,4029.0
56.977013187,3947.0
56.993724456,4095.0
57.010435725,4100.0
57.027146994,4031.0
57.043858263,4025.0
57.060569532,4071.0
57.077280801,4116.0
57.093992070,4019.0
57.110703339,4025.0
57.127414608,4099.0
57.144125877,4091.0
57.160837146,3928.0
57.177548415,4163.0
57.194259684,4047.0
57.210970953,4087.0
57.227682222,3951.0
57.244393491,4133.0
57.261104760,4082.0
57.277816029,4054.0
57.294527298,4104.0
57.311238567,3961.0
57.327949836,4115.0
57.344661105,4059.0
57.361372374,4012.0
57.378083643,4028.0
57.394794912,4024.0
57.411506181,4004.0
57.428217450,4020.0
57.444928719,4117.0
57.461639988,4090.0
57.478351257,4102.0
57.495062526,4074.0
57.511773795,4023.0
57.528485064,4068.0
57.545196333,4101.0
57.561907602,3998.0
57.578618871,4092.0
57.595330140,4055.0
57.612041409,4032.0
57.628752678,4054.0
57.645463947,4037.0
57.662175216,4168.0
57.678886484,4047.0
57.695597753,4005.0
57.712309022,4039.0
57.729020291,4152.0
57.745731560,4043.0
57.762442829,4055.0
57.779154098,4006.0
57.795865367,4019.0
57.812576636,4148.0
57.829287905,3983.0
57.845999174,4119.0
57.862710443,4047.0
57.879421712,4051.0
57.896132981,4035.0
57.912844250,4097.0
57.929555519,4125.0
57.946266788,4126.0
57.962978057,4015.0
57.979689326,3988.0
57.996400595,4039.0
58.013111864,4015.0
58.029823133,4011.0
58.046534402,4028.0
58.063245671,3998.0
58.079956940,4092.0
58.096668209,3990.0
58.113379478,4022.0
58.130090747,4215.0
58.146802016,4101.0
58.163513285,4142.0
58.180224554,4081.0
58.196935823,4095.0
58.213647092,4139.0
58.230358361,4159.0
58.247069630,4123.0
58.263780899,4109.0
58.280492168,4063.0
58.297203437,4127.0
58.313914706,4141.0
58.330625975,4262.0
58.347337244,4213.0
58.364048513,4136.0
58.380759782,4095.0
58.397471051,4102.0
58.414182320,4044.0
58.430893589,4135.0
58.447604858,4091.0
58.464316127,4149.0
58.481027395,4103.0
58.497738664,4253.0
58.514449933,4039.0
58.531161202,4140.0
58.547872471,4150.0
58.564583740,4211.0
58.581295009,4068.0
58.598006278,4084.0
58.614717547,4257.0
58.631428816,4098.0
58.648140085,4068.0
58.664851354,4102.0
58.681562623,3959.0
58.698273892,4157.0
58.714985161,4107.0
58.731696430,4046.0
58.748407699,4045.0
58.765118968,4199.0
58.781830237,4005.0
58.798541506,4237.0
58.815252775,4024.0
58.831964044,3965.0
58.848675313,4109.0
58.865386582,4115.0
58.882097851,4053.0
58.898809120,4164.0
58.915520389,4048.0
58.932231658,4190.0
58.948942927,4161.0
58.965654196,4111.0
58.982365465,4226.0
58.999076734,4068.0
59.015788003,4154.0
59.032499272,4180.0
59.049210541,4091.0
59.065921810,4237.0
59.082633079,4086.0
59.099344348,4157.0
59.116055617,4198.0
59.132766886,4149.0
59.149478155,4204.0
59.166189424,4173.0
59.182900693,4050.0
59.199611962,4113.0
59.216323231,4155.0
59.233034500,4223.0
59.249745769,4174.0
59.266457038,4023.0
59.283168306,4133.0
59.299879575,4094.0
59.316590844,4116.0
59.333302113,4165.0
59.350013382,4142.0
59.366724651,4171.0
59.383435920,4263.0
59.400147189,4088.0
59.416858458,4105.0
59.433569727,4110.0
59.450280996,4090.0
59.466992265,4052.0
59.483703534,4090.0
59.500414803,4199.0
59.517126072,4142.0
59.533837341,4119.0
59.550548610,4178.0
59.567259879,4194.0
59.583971148,4157.0
59.600682417,4174.0
59.617393686,4221.0
59.634104955,4149.0
59.650816224,4182.0
59.667527493,4113.0
59.684238762,4083.0
59.700950031,4275.0
59.717661300,4181.0
59.734372569,4096.0
59.751083838,4152.0
59.767795107,4164.0
59.784506376,4218.0
59.801217645,4163.0
59.817928914,4247.0
59.834640183,4269.0
59.851351452,4168.0
59.868062721,4233.0
59.884773990,4082.0
59.901485259,4238.0
59.918196528,4048.0
59.934907797,4223.0
59.951619066,4136.0
59.968330335,4219.0
59.985041604,4193.0
60.001752873,4221.0
60.018464142,4156.0
60.035175411,4238.0
60.051886680,4114.0
60.068597949,4270.0
60.085309217,4132.0
60.102020486,4136.0
60.118731755,4192.0
60.135443024,4265.0
60.152154293,4278.0
60.168865562,4215.0
60.185576831,4116.0
60.202288100,4267.0
60.218999369,4142.0
60.235710638,4191.0
60.252421907,4246.0
60.269133176,4212.0
60.285844445,4199.0
60.302555714,4181.0
60.319266983,4326.0
60.335978252,4303.0
60.352689521,4311.0
60.369400790,4304.0
60.386112059,4265.0
60.402823328,4382.0
60.419534597,4373.0
60.436245866,4384.0
60.452957135,4255.0
60.469668404,4366.0
60.486379673,4310.0
60.503090942,4281.0
60.519802211,4236.0
60.536513480,4415.0
60.553224749,4410.0
60.569936018,4555.0
60.586647287,4560.0
60.603358556,4460.0
60.620069825,4521.0
60.636781094,4711.0
60.653492363,4703.0
60.670203632,4758.0
60.686914901,4693.0
60.703626170,4871.0
60.720337439,4920.0
60.737048708,4887.0
60.753759977,5008.0
60.770471246,5167.0
60.787182515,5279.0
60.803893784,5439.0
60.820605053,5837.0
60.837316322,5675.0
60.854027591,5995.0
60.870738860,6041.0
60.887450129,6312.0
60.904161397,6645.0
60.920872666,6785.0
60.937583935,6995.0
60.954295204,7194.0
60.971006473,7779.0
60.987717742,7792.0
61.004429011,8014.0
61.021140280,8646.0
61.037851549,9134.0
61.054562818,9183.0
61.071274087,9555.0
61.087985356,9973.0
61.104696625,10242.0
61.121407894,10585.0
61.138119163,10838.0
61.154830432,11269.0
61.171541701,11459.0
61.188252970,11342.0
61.204964239,11856.0
61.221675508,11872.0
61.238386777,12077.0
61.255098046,12079.0
61.271809315,11992.0
61.288520584,12133.0
61.305231853,12021.0
61.321943122,11752.0
61.338654391,11491.0
61.355365660,11293.0
61.372076929,10926.0
61.388788198,10761.0
61.405499467,10508.0
61.422210736,9947.0
61.438922005,9566.0
61.455633274,9291.0
61.472344543,8616.0
61.489055812,8417.0
61.505767081,8051.0
61.522478350,7678.0
61.539189619,7301.0
61.555900888,6893.0
61.572612157,6620.0
61.589323426,6372.0
61.606034695,6180.0
61.622745964,5892.0
61.639457233,5823.0
61.656168502,5605.0
61.672879771,5459.0
61.689591040,5045.0
61.706302308,5074.0
61.723013577,5145.0
61.739724846,4956.0
61.756436115,4743.0
61.773147384,4820.0
61.789858653,4587.0
61.806569922,4571.0
61.823281191,4641.0
61.839992460,4611.0
61.856703729,4430.0
61.873414998,4559.0
61.890126267,4531.0
61.906837536,4399.0
61.923548805,4470.0
61.940260074,4320.0
61.956971343,4319.0
61.973682612,4284.0
61.990393881,4232.0
62.007105150,4413.0
62.023816419,4375.0
62.040527688,4380.0
62.057238957,4332.0
62.073950226,4087.0
62.090661495,4215.0
62.107372764,4231.0
62.124084033,4327.0
62.140795302,4247.0
62.157506571,4127.0
62.174217840,4250.0
62.190929109,4278.0
62.207640378,4150.0
62.224351647,4220.0
62.241062916,4348.0
62.257774185,4168.0
62.274485454,4079.0
62.291196723,4223.0
62.307907992,4215.0
62.324619261,4202.0
62.341330530,4298.0
62.358041799,4179.0
62.374753068,4217.0
62.391464337,4243.0
62.408175606,4198.0
62.424886875,4329.0
62.441598144,4195.0
62.458309413,4210.0
62.475020682,4201.0
62.491731951,4164.0
62.508443219,4168.0
62.525154488,4185.0
62.541865757,4178.0
62.558577026,4193.0
62.575288295,4122.0
62.591999564,4144.0
62.608710833,4167.0
62.625422102,4221.0
62.642133371,4147.0
62.658844640,4265.0
62.675555909,4234.0
62.692267178,4108.0
62.708978447,4039.0
62.725689716,4190.0
62.742400985,4123.0
62.759112254,4227.0
62.775823523,4291.0
62.792534792,4312.0
62.809246061,4133.0
62.825957330,4147.0
62.842668599,4110.0
62.859379868,4175.0
62.876091137,4078.0
62.892802406,4111.0
62.909513675,4081.0
62.926224944,4246.0
62.942936213,4225.0
62.959647482,4059.0
62.976358751,4186.0
62.993070020,4069.0
63.009781289,4135.0
63.026492558,4091.0
63.043203827,4036.0
63.059915096,4225.0
63.076626365,4176.0
63.093337634,4056.0
63.110048903,4205.0
63.126760172,4109.0
63.143471441,4135.0
63.160182710,4094.0
63.176893979,4215.0
63.193605248,4224.0
63.210316517,4302.0
63.227027786,4193.0
63.243739055,4133.0
63.260450324,4076.0
63.277161593,4115.0
63.293872862,4115.0
63.310584130,4111.0
63.327295399,4308.0
63.344006668,4197.0
63.360717937,4174.0
63.377429206,4143.0
63.394140475,4178.0
63.410851744,4200.0
63.427563013,4106.0
63.444274282,4197.0
63.460985551,4078.0
63.477696820,4156.0
63.494408089,4162.0
63.511119358,4174.0
63.527830627,4091.0
63.544541896,4169.0
63.561253165,4186.0
63.577964434,4165.0
63.594675703,4115.0
63.611386972,4130.0
63.628098241,4173.0
63.644809510,4160.0
63.661520779,4134.0
63.678232048,4078.0
63.694943317,4134.0
63.711654586,4105.0
63.728365855,4232.0
63.745077124,4125.0
63.761788393,4105.0
63.778499662,4046.0
63.795210931,4174.0
63.811922200,4240.0
63.828633469,4112.0
63.845344738,4113.0
63.862056007,4081.0
63.878767276,4218.0
63.895478545,4189.0
63.912189814,4150.0
63.928901083,4175.0
63.945612352,4068.0
63.962323621,4231.0
63.979034890,4164.0
63.995746159,4209.0
64.012457428,4130.0
64.029168697,4213.0
64.045879966,4233.0
64.062591235,4151.0
64.079302504,4113.0
64.096013773,4164.0
64.112725041,4135.0
64.129436310,4302.0
64.146147579,4061.0
64.162858848,4227.0
64.179570117,4060.0
64.196281386,4109.0
64.212992655,4197.0
64.229703924,4082.0
64.246415193,4076.0
64.263126462,4181.0
64.279837731,4138.0
64.296549000,4030.0
64.313260269,4119.0
64.329971538,4021.0
64.346682807,4034.0
64.363394076,4187.0
64.380105345,4194.0
64.396816614,4235.0
64.413527883,4051.0
64.430239152,4129.0
64.446950421,4179.0
64.463661690,4099.0
64.480372959,4186.0
64.497084228,4260.0
64.513795497,4108.0
64.530506766,4112.0
64.547218035,4126.0
64.563929304,4138.0
64.580640573,4107.0
64.597351842,4082.0
64.614063111,4047.0
64.630774380,4021.0
64.647485649,4234.0
64.664196918,4168.0
64.680908187,4209.0
64.697619456,4180.0
64.714330725,4293.0
64.731041994,4024.0
64.747753263,4150.0
64.764464532,4210.0
64.781175801,4053.0
64.797887070,4073.0
64.814598339,4092.0
64.831309608,4077.0
64.848020877,4116.0
64.864732146,4124.0
64.881443415,4265.0
64.898154684,4080.0
64.914865953,4039.0
64.931577221,4085.0
64.948288490,4166.0
64.964999759,4181.0
64.981711028,4097.0
64.998422297,4091.0
65.015133566,4130.0
65.031844835,4167.0
65.048556104,4045.0
65.065267373,4134.0
65.081978642,4070.0
65.098689911,4221.0
65.115401180,4120.0
65.132112449,4079.0
65.148823718,4176.0
65.165534987,4050.0
65.182246256,4223.0
65.198957525,4045.0
65.215668794,4133.0
65.232380063,4138.0
65.249091332,4041.0
65.265802601,4285.0
65.282513870,4175.0
65.299225139,4080.0
65.315936408,4146.0
65.332647677,4204.0
65.349358946,4301.0
65.366070215,4042.0
65.382781484,4198.0
65.399492753,4237.0
65.416204022,4150.0
65.432915291,4185.0
65.449626560,4122.0
65.466337829,4144.0
65.483049098,4121.0
65.499760367,4152.0
65.516471636,4164.0
65.533182905,4241.0
65.549894174,4240.0
65.566605443,4190.0
65.583316712,4149.0
65.600027981,4162.0
65.616739250,4208.0
65.633450519,4101.0
65.650161788,4166.0
65.666873057,4233.0
65.683584326,4153.0
65.700295595,4200.0
65.717006864,4196.0
65.733718132,4133.0
65.750429401,4128.0
65.767140670,4239.0
65.783851939,4162.0
65.800563208,4175.0
65.817274477,4123.0
65.833985746,4212.0
65.850697015,4197.0
65.867408284,4152.0
65.884119553,4171.0
65.900830822,4150.0
65.917542091,4253.0
65.934253360,4062.0
65.950964629,4162.0
65.967675898,4240.0
65.984387167,4169.0
66.001098436,4215.0
66.017809705,4289.0
66.034520974,4256.0
66.051232243,4283.0
66.067943512,4211.0
66.084654781,4178.0
66.101366050,4195.0
66.118077319,4302.0
66.134788588,4274.0
66.151499857,4307.0
66.168211126,4271.0
66.184922395,4271.0
66.201633664,4303.0
66.218344933,4408.0
66.235056202,4197.0
66.251767471,4287.0
66.268478740,4343.0
66.285190009,4336.0
66.301901278,4370.0
66.318612547,4437.0
66.335323816,4465.0
66.352035085,4372.0
66.368746354,4489.0
66.385457623,4340.0
66.402168892,4375.0
66.418880161,4301.0
66.435591430,4368.0
66.452302699,4310.0
66.469013968,4293.0
66.485725237,4410.0
66.502436506,4301.0
66.519147775,4354.0
66.535859043,4458.0
66.552570312,4513.0
66.569281581,4371.0
66.585992850,4349.0
66.602704119,4227.0
66.619415388,4468.0
66.636126657,4286.0
66.652837926,4235.0
66.669549195,4365.0
66.686260464,4185.0
66.702971733,4251.0
66.719683002,4220.0
66.736394271,4220.0
66.753105540,4282.0
66.769816809,4292.0
66.786528078,4317.0
66.803239347,4295.0
66.819950616,4275.0
66.836661885,4064.0
66.853373154,4211.0
66.870084423,4253.0
66.886795692,4259.0
66.903506961,4155.0
66.920218230,4189.0
66.936929499,4189.0
66.953640768,4304.0
66.970352037,4241.0
66.987063306,4188.0
67.003774575,4156.0
67.020485844,4174.0
67.037197113,4124.0
67.053908382,4240.0
67.070619651,4098.0
67.087330920,4270.0
67.104042189,4160.0
67.120753458,4326.0
67.137464727,4110.0
67.154175996,4142.0
67.170887265,4112.0
67.187598534,4244.0
67.204309803,4197.0
67.221021072,4210.0
67.237732341,4037.0
67.254443610,4214.0
67.271154879,4228.0
67.287866148,4248.0
67.304577417,4165.0
67.321288686,4217.0
67.337999954,4081.0
67.354711223,4056.0
67.371422492,4133.0
67.388133761,4201.0
67.404845030,4096.0
67.421556299,4105.0
67.438267568,4260.0
67.454978837,4022.0
67.471690106,4161.0
67.488401375,4122.0
67.505112644,4155.0
67.521823913,4201.0
67.538535182,4072.0
67.555246451,4203.0
67.571957720,4215.0
67.588668989,4145.0
67.605380258,4253.0
67.622091527,4285.0
67.638802796,4175.0
67.655514065,4187.0
67.672225334,4356.0
67.688936603,4098.0
67.705647872,4113.0
67.722359141,4059.0
67.739070410,4248.0
67.755781679,4172.0
67.772492948,4120.0
67.789204217,4287.0
67.805915486,4101.0
67.822626755,4145.0
67.839338024,4253.0
67.856049293,4374.0
67.872760562,4163.0
67.889471831,4200.0
67.906183100,4242.0
67.922894369,4262.0
67.939605638,4436.0
67.956316907,4471.0
67.973028176,4323.0
67.989739445,4435.0
68.006450714,4546.0
68.023161983,4645.0
68.039873252,4421.0
68.056584521,4360.0
68.073295790,4281.0
68.090007059,4311.0
68.106718328,4228.0
68.123429597,4229.0
68.140140866,4242.0
68.156852134,4267.0
68.173563403,4310.0
68.190274672,4336.0
68.206985941,4353.0
68.223697210,4379.0
68.240408479,4317.0
68.257119748,4286.0
68.273831017,4304.0
68.290542286,4210.0
68.307253555,4255.0
68.323964824,4244.0
68.340676093,4277.0
68.357387362,4263.0
68.374098631,4226.0
68.390809900,4309.0
68.407521169,4311.0
68.424232438,4234.0
68.440943707,4218.0
68.457654976,4227.0
68.474366245,4058.0
68.491077514,4383.0
68.507788783,4225.0
68.524500052,4211.0
68.541211321,4172.0
68.557922590,4192.0
68.574633859,4253.0
68.591345128,4149.0
68.608056397,4257.0
68.624767666,4201.0
68.641478935,4229.0
68.658190204,4014.0
68.674901473,4238.0
68.691612742,4131.0
68.708324011,4131.0
68.725035280,4168.0
68.741746549,4195.0
68.758457818,4147.0
68.775169087,4193.0
68.791880356,4201.0
68.808591625,4079.0
68.825302894,4242.0
68.842014163,4130.0
68.858725432,4232.0
68.875436701,4112.0
68.892147970,4059.0
68.908859239,4072.0
68.925570508,4129.0
68.942281777,4230.0
68.958993045,4291.0
68.975704314,4137.0
68.992415583,4158.0
69.009126852,4257.0
69.025838121,3982.0
69.042549390,4193.0
69.059260659,4256.0
69.075971928,4175.0
69.092683197,4106.0
69.109394466,4306.0
69.126105735,4150.0
69.142817004,4242.0
69.159528273,4246.0
69.176239542,4198.0
69.192950811,4117.0
69.209662080,4375.0
69.226373349,4172.0
69.243084618,3974.0
69.259795887,4356.0
69.276507156,4257.0
69.293218425,4357.0
69.309929694,4305.0
69.326640963,4275.0
69.343352232,4220.0
69.360063501,4246.0
69.376774770,4212.0
69.393486039,4283.0
69.410197308,4239.0
69.426908577,4233.0
69.443619846,4137.0
69.460331115,4215.0
69.477042384,4173.0
69.493753653,4127.0
69.510464922,4127.0
69.527176191,4174.0
69.543887460,4155.0
69.560598729,4182.0
69.577309998,4146.0
69.594021267,4153.0
69.610732536,4199.0
69.627443805,4154.0
69.644155074,4244.0
69.660866343,4210.0
69.677577612,4217.0
69.694288881,4186.0
69.711000150,4142.0
69.727711419,4158.0
69.744422688,4201.0
69.761133956,4250.0
69.777845225,4152.0
69.794556494,4221.0
69.811267763,4183.0
69.827979032,4273.0
69.844690301,4050.0
69.861401570,4195.0
69.878112839,4046.0
69.894824108,4136.0
69.911535377,4064.0
69.928246646,4140.0
69.944957915,4178.0
69.961669184,4023.0
69.978380453,4219.0
69.995091722,4169.0
70.011802991,3998.0
70.028514260,4227.0
70.045225529,4172.0
70.061936798,4105.0
70.078648067,4187.0
70.095359336,4213.0
70.112070605,4264.0
70.128781874,4223.0
70.145493143,4128.0
70.162204412,4147.0
70.178915681,4131.0
70.195626950,4122.0
70.212338219,4168.0
70.229049488,4205.0
70.245760757,4073.0
70.262472026,4182.0
70.279183295,4125.0
70.295894564,4113.0
70.312605833,4248.0
70.329317102,4331.0
70.346028371,4250.0
70.362739640,4133.0
70.379450909,4243.0
70.396162178,4134.0
70.412873447,4207.0
70.429584716,4176.0
70.446295985,4075.0
70.463007254,4132.0
70.479718523,4171.0
70.496429792,4140.0
70.513141061,4341.0
70.529852330,4176.0
70.546563599,4286.0
70.563274867,4206.0
70.579986136,4274.0
70.596697405,4137.0
70.613408674,4269.0
70.630119943,4137.0
70.646831212,4136.0
70.663542481,4188.0
70.680253750,4222.0
70.696965019,4122.0
70.713676288,4242.0
70.730387557,4289.0
70.747098826,4088.0
70.763810095,4161.0
70.780521364,4218.0
70.797232633,4235.0
70.813943902,4213.0
70.830655171,4189.0
70.847366440,4078.0
70.864077709,4043.0
70.880788978,4116.0
70.897500247,4065.0
70.914211516,4239.0
70.930922785,4177.0
70.947634054,4185.0
70.964345323,4243.0
70.981056592,4211.0
70.997767861,4102.0
71.014479130,4063.0
71.031190399,4268.0
71.047901668,4179.0
71.064612937,4166.0
71.081324206,4154.0
71.098035475,4142.0
71.114746744,4025.0
71.131458013,4140.0
71.148169282,4189.0
71.164880551,4178.0
71.181591820,4114.0
71.198303089,4151.0
71.215014358,4216.0
71.231725627,4248.0
71.248436896,4299.0
71.265148165,4285.0
71.281859434,4269.0
71.298570703,4205.0
71.315281972,4141.0
71.331993241,4170.0
71.348704510,4230.0
71.365415779,4191.0
71.382127047,4162.0
71.398838316,4107.0
71.415549585,4355.0
71.432260854,4284.0
71.448972123,4163.0
71.465683392,4242.0
71.482394661,4332.0
71.499105930,4123.0
71.515817199,4402.0
71.532528468,4239.0
71.549239737,4177.0
71.565951006,4100.0
71.582662275,4218.0
71.599373544,4291.0
71.616084813,4163.0
71.632796082,4153.0
71.649507351,4312.0
71.666218620,4195.0
71.682929889,4160.0
71.699641158,4279.0
71.716352427,4212.0
71.733063696,4273.0
71.749774965,4313.0
71.766486234,4268.0
71.783197503,4235.0
71.799908772,4300.0
71.816620041,4137.0
71.833331310,4325.0
71.850042579,4271.0
71.866753848,4255.0
71.883465117,4266.0
71.900176386,4271.0
71.916887655,4291.0
71.933598924,4303.0
71.950310193,4243.0
71.967021462,4343.0
71.983732731,4304.0
72.000444000,4379.0
72.017155269,4309.0
72.033866538,4287.0
72.050577807,4335.0
72.067289076,4351.0
72.084000345,4209.0
72.100711614,4251.0
72.117422883,4274.0
72.134134152,4282.0
72.150845421,4303.0
72.167556690,4296.0
72.184267958,4302.0
72.200979227,4374.0
72.217690496,4427.0
72.234401765,4410.0
72.251113034,4257.0
72.267824303,4398.0
72.284535572,4394.0
72.301246841,4316.0
72.317958110,4331.0
72.334669379,4310.0
72.351380648,4388.0
72.368091917,4417.0
72.384803186,4320.0
72.401514455,4400.0
72.418225724,4415.0
72.434936993,4372.0
72.451648262,4446.0
72.468359531,4391.0
72.485070800,4454.0
72.501782069,4333.0
72.518493338,4415.0
72.535204607,4509.0
72.551915876,4432.0
72.568627145,4487.0
72.585338414,4500.0
72.602049683,4691.0
72.618760952,4591.0
72.635472221,4560.0
72.652183490,4566.0
72.668894759,4672.0
72.685606028,4768.0
72.702317297,4768.0
72.719028566,4878.0
72.735739835,4953.0
72.752451104,4926.0
72.769162373,5217.0
72.785873642,5216.0
72.802584911,5179.0
72.819296180,5190.0
72.836007449,5389.0
72.852718718,5289.0
72.869429987,5754.0
72.886141256,5639.0
72.902852525,5651.0
72.919563794,5882.0
72.936275063,5923.0
72.952986332,5985.0
72.969697601,6282.0
72.986408869,6193.0
73.003120138,6423.0
73.019831407,6644.0
73.036542676,6865.0
73.053253945,6977.0
73.069965214,7136.0
73.086676483,7263.0
73.103387752,7425.0
73.120099021,7581.0
73.136810290,7665.0
73.153521559,7856.0
73.170232828,7990.0
73.186944097,7973.0
73.203655366,8272.0
73.220366635,8288.0
73.237077904,8279.0
73.253789173,8455.0
73.270500442,8605.0
73.287211711,8530.0
73.303922980,8523.0
73.320634249,8477.0
73.337345518,8538.0
73.354056787,8512.0
73.370768056,8597.0
73.387479325,8447.0
73.404190594,8360.0
73.420901863,8243.0
73.437613132,7988.0
73.454324401,7865.0
73.471035670,7975.0
73.487746939,7520.0
73.504458208,7665.0
73.521169477,7298.0
73.537880746,7316.0
73.554592015,7126.0
73.571303284,6789.0
73.588014553,6707.0
73.604725822,6645.0
73.621437091,6431.0
73.638148360,6272.0
73.654859629,6189.0
73.671570898,5974.0
73.688282167,5931.0
73.704993436,5805.0
73.721704705,5605.0
73.738415974,5521.0
73.755127243,5499.0
73.771838512,5389.0
73.788549780,5395.0
73.805261049,5319.0
73.821972318,5224.0
73.838683587,5289.0
73.855394856,5222.0
73.872106125,5268.0
73.888817394,5391.0
73.905528663,5420.0
73.922239932,5293.0
73.938951201,5445.0
73.955662470,5632.0
73.972373739,5839.0
73.989085008,6097.0
74.005796277,6532.0
74.022507546,6860.0
74.039218815,7150.0
74.055930084,7351.0
74.072641353,7405.0
74.089352622,7432.0
74.106063891,7368.0
74.122775160,7362.0
74.139486429,7400.0
74.156197698,7182.0
74.172908967,7616.0
74.189620236,7819.0
74.206331505,8291.0
74.223042774,9168.0
74.239754043,9749.0
74.256465312,10436.0
74.273176581,11551.0
74.289887850,12626.0
74.306599119,13746.0
74.323310388,14367.0
74.340021657,14102.0
74.356732926,13521.0
74.373444195,12067.0
74.390155464,10772.0
74.406866733,9419.0
74.423578002,8422.0
74.440289271,7738.0
74.457000540,7575.0
74.473711809,7613.0
74.490423078,7953.0
74.507134347,8362.0
74.523845616,8596.0
74.540556885,8898.0
74.557268154,8820.0
74.573979423,8240.0
74.590690692,7556.0
74.607401960,6912.0
74.624113229,6112.0
74.640824498,5507.0
74.657535767,5155.0
74.674247036,5028.0
74.690958305,4935.0
74.707669574,4651.0
74.724380843,4783.0
74.741092112,4480.0
74.757803381,4471.0
74.774514650,4487.0
74.791225919,4345.0
74.807937188,4503.0
74.824648457,4411.0
74.841359726,4397.0
74.858070995,4461.0
74.874782264,4374.0
74.891493533,4290.0
74.908204802,4543.0
74.924916071,4349.0
74.941627340,4307.0
74.958338609,4349.0
74.975049878,4445.0
74.991761147,4308.0
75.008472416,4350.0
75.025183685,4227.0
75.041894954,4284.0
75.058606223,4231.0
75.075317492,4329.0
75.092028761,4435.0
75.108740030,4263.0
75.125451299,4199.0
75.142162568,4301.0
75.158873837,4333.0
75.175585106,4258.0
75.192296375,4392.0
75.209007644,4349.0
75.225718913,4244.0
75.242430182,4317.0
75.259141451,4268.0
75.275852720,4338.0
75.292563989,4232.0
75.309275258,4417.0
75.325986527,4315.0
75.342697796,4232.0
75.359409065,4341.0
75.376120334,4233.0
75.392831603,4248.0
75.409542871,4338.0
75.426254140,4286.0
75.442965409,4258.0
75.459676678,4183.0
75.476387947,4312.0
75.493099216,4288.0
75.509810485,4027.0
75.526521754,4259.0
75.543233023,4287.0
75.559944292,4329.0
75.576655561,4214.0
75.593366830,4426.0
75.610078099,4305.0
75.626789368,4285.0
75.643500637,4216.0
75.660211906,4292.0
75.676923175,4170.0
75.693634444,4182.0
75.710345713,4218.0
75.727056982,4367.0
75.743768251,4304.0
75.760479520,4297.0
75.777190789,4290.0
75.793902058,4256.0
75.810613327,4141.0
75.827324596,4245.0
75.844035865,4296.0
75.860747134,4082.0
75.877458403,4176.0
75.894169672,4183.0
75.910880941,4268.0
75.927592210,4137.0
75.944303479,4230.0
75.961014748,4131.0
75.977726017,4287.0
75.994437286,4289.0
76.011148555,4276.0
76.027859824,4170.0
76.044571093,4140.0
76.061282362,4225.0
76.077993631,4144.0
76.094704900,4074.0
76.111416169,4262.0
76.128127438,4215.0
76.144838707,4270.0
76.161549976,4268.0
76.178261245,4117.0
76.194972514,4097.0
76.211683782,4111.0
76.228395051,4163.0
76.245106320,4256.0
76.261817589,4235.0
76.278528858,4276.0
76.295240127,4186.0
76.311951396,4278.0
76.328662665,4111.0
76.345373934,4208.0
76.362085203,4177.0
76.378796472,4251.0
76.395507741,4158.0
76.412219010,4261.0
76.428930279,4207.0
76.445641548,4220.0
76.462352817,4209.0
76.479064086,4255.0
76.495775355,4199.0
76.512486624,4323.0
76.529197893,4232.0
76.545909162,4142.0
76.562620431,4299.0
76.579331700,4201.0
76.596042969,4227.0
76.612754238,4336.0
76.629465507,4255.0
76.646176776,4368.0
76.662888045,4338.0
76.679599314,4435.0
76.696310583,4413.0
76.713021852,4421.0
76.729733121,4372.0
76.746444390,4482.0
76.763155659,4432.0
76.779866928,4466.0
76.796578197,4371.0
76.813289466,4554.0
76.830000735,4611.0
76.846712004,4689.0
76.863423273,4613.0
76.880134542,4638.0
76.896845811,4618.0
76.913557080,4588.0
76.930268349,4555.0
76.946979618,4766.0
76.963690887,4766.0
76.980402156,4819.0
76.997113425,4929.0
77.013824693,4837.0
77.030535962,4878.0
77.047247231,4856.0
77.063958500,5097.0
77.080669769,5021.0
77.097381038,5013.0
77.114092307,4988.0
77.130803576,4959.0
77.147514845,5146.0
77.164226114,5277.0
77.180937383,5158.0
77.197648652,5178.0
77.214359921,5123.0
77.231071190,5103.0
77.247782459,5136.0
77.264493728,5103.0
77.281204997,5173.0
77.297916266,5033.0
77.314627535,5053.0
77.331338804,4997.0
77.348050073,4980.0
77.364761342,5017.0
77.381472611,4898.0
77.398183880,4878.0
77.414895149,5073.0
77.431606418,4871.0
77.448317687,4842.0
77.465028956,4824.0
77.481740225,4578.0
77.498451494,4639.0
77.515162763,4639.0
77.531874032,4536.0
77.548585301,4627.0
77.565296570,4372.0
77.582007839,4438.0
77.598719108,4568.0
77.615430377,4381.0
77.632141646,4709.0
77.648852915,4364.0
77.665564184,4354.0
77.682275453,4449.0
77.698986722,4325.0
77.715697991,4364.0
77.732409260,4322.0
77.749120529,4281.0
77.765831798,4198.0
77.782543067,4231.0
77.799254336,4339.0
77.815965605,4238.0
77.832676873,4364.0
77.849388142,4252.0
77.866099411,4248.0
77.882810680,4233.0
77.899521949,4120.0
77.916233218,4271.0
77.932944487,4259.0
77.949655756,4231.0
77.966367025,4213.0
77.983078294,4253.0
77.999789563,4147.0
78.016500832,4212.0
78.033212101,4185.0
78.049923370,4226.0
78.066634639,4263.0
78.083345908,4290.0
78.100057177,4158.0
78.116768446,4278.0
78.133479715,4260.0
78.150190984,4101.0
78.166902253,4161.0
78.183613522,4203.0
78.200324791,4265.0
78.217036060,4240.0
78.233747329,4237.0
78.250458598,4092.0
78.267169867,4128.0
78.283881136,4139.0
78.300592405,4237.0
78.317303674,4116.0
78.334014943,4317.0
78.350726212,4194.0
78.367437481,4228.0
78.384148750,4187.0
78.400860019,4078.0
78.417571288,4229.0
78.434282557,4318.0
78.450993826,4260.0
78.467705095,4265.0
78.484416364,4183.0
78.501127633,4369.0
78.517838902,4149.0
78.534550171,4273.0
78.551261440,4185.0
78.567972709,4226.0
78.584683978,4179.0
78.601395247,4115.0
78.618106516,4026.0
78.634817784,4097.0
78.651529053,4206.0
78.668240322,4210.0
78.684951591,4189.0
78.701662860,4124.0
78.718374129,4227.0
78.735085398,4254.0
78.751796667,4003.0
78.768507936,4179.0
78.785219205,4200.0
78.801930474,4117.0
78.818641743,4198.0
78.835353012,4197.0
78.852064281,4153.0
78.868775550,4078.0
78.885486819,4158.0
78.902198088,4146.0
78.918909357,4096.0
78.935620626,4247.0
78.952331895,4216.0
78.969043164,4197.0
78.985754433,4154.0
79.002465702,4275.0
79.019176971,4155.0
79.035888240,4283.0
79.052599509,4179.0
79.069310778,4062.0
79.086022047,4255.0
79.102733316,4214.0
79.119444585,4164.0
79.136155854,4169.0
79.152867123,4254.0
79.169578392,4256.0
79.186289661,4214.0
79.203000930,4124.0
79.219712199,4125.0
79.236423468,4164.0
79.253134737,4148.0
79.269846006,4227.0
79.286557275,4213.0
79.303268544,4169.0
79.319979813,4191.0
79.336691082,4244.0
79.353402351,4140.0
79.370113620,4165.0
79.386824889,4259.0
79.403536158,4143.0
79.420247427,4117.0
79.436958695,4239.0
79.453669964,4156.0
79.470381233,4159.0
79.487092502,4124.0
79.503803771,4226.0
79.520515040,4190.0
79.537226309,4144.0
79.553937578,4180.0
79.570648847,4143.0
79.587360116,4089.0
79.604071385,4298.0
79.620782654,4260.0
79.637493923,4136.0
79.654205192,4085.0
79.670916461,4098.0
79.687627730,4147.0
79.704338999,4116.0
79.721050268,4161.0
79.737761537,4083.0
79.754472806,4279.0
79.771184075,4194.0
79.787895344,4185.0
79.804606613,4067.0
79.821317882,4196.0
79.838029151,4082.0
79.854740420,3985.0
79.871451689,4121.0
79.888162958,4246.0
79.904874227,4150.0
79.921585496,4071.0
79.938296765,4155.0
79.955008034,4161.0
79.971719303,4148.0
79.988430572,4218.0
80.005141841,4233.0
80.021853110,4109.0
80.038564379,4188.0
80.055275648,4213.0
80.071986917,4247.0
80.088698186,4209.0
80.105409455,4117.0
80.122120724,4265.0
80.138831993,4120.0
80.155543262,4113.0
80.172254531,4232.0
80.188965800,4101.0
80.205677069,4181.0
80.222388338,4065.0
80.239099606,4040.0
80.255810875,4230.0
80.272522144,4180.0
80.289233413,4203.0
80.305944682,4146.0
80.322655951,4212.0
80.339367220,4286.0
80.356078489,4024.0
80.372789758,4097.0
80.389501027,4180.0
80.406212296,4240.0
80.422923565,4134.0
80.439634834,4126.0
80.456346103,4358.0
80.473057372,4267.0
80.489768641,4006.0
80.506479910,4098.0
80.523191179,4226.0
80.539902448,4269.0
80.556613717,4241.0
80.573324986,4171.0
80.590036255,4131.0
80.606747524,4041.0
80.623458793,4116.0
80.640170062,4149.0
80.656881331,4223.0
80.673592600,4149.0
80.690303869,4024.0
80.707015138,4215.0
80.723726407,4103.0
80.740437676,4238.0
80.757148945,4160.0
80.773860214,4250.0
80.790571483,4153.0
80.807282752,4202.0
80.823994021,4171.0
80.840705290,4195.0
80.857416559,4175.0
80.874127828,4144.0
80.890839097,4106.0
80.907550366,4221.0
80.924261635,4018.0
80.940972904,4246.0
80.957684173,4128.0
80.974395442,4306.0
80.991106711,4124.0
81.007817980,4216.0
81.024529249,4158.0
81.041240518,4122.0
81.057951786,4136.0
81.074663055,4058.0
81.091374324,4199.0
81.108085593,4215.0
81.124796862,4228.0
81.141508131,4255.0
81.158219400,4318.0
81.174930669,4245.0
81.191641938,4147.0
81.208353207,4207.0
81.225064476,4213.0
81.241775745,4230.0
81.258487014,4113.0
81.275198283,4083.0
81.291909552,4038.0
81.308620821,4133.0
81.325332090,4235.0
81.342043359,4231.0
81.358754628,4056.0
81.375465897,4160.0
81.392177166,4171.0
81.408888435,4168.0
81.425599704,4264.0
81.442310973,4208.0
81.459022242,4124.0
81.475733511,4164.0
81.492444780,4189.0
81.509156049,4274.0
81.525867318,4125.0
81.542578587,4102.0
81.559289856,4141.0
81.576001125,4166.0
81.592712394,4086.0
81.609423663,4308.0
81.626134932,4089.0
81.642846201,4135.0
81.659557470,4232.0
81.676268739,4125.0
81.692980008,4104.0
81.709691277,4105.0
81.726402546,4145.0
81.743113815,4198.0
81.759825084,4278.0
81.776536353,4234.0
81.793247622,4209.0
81.809958891,4283.0
81.826670160,4155.0
81.843381429,4092.0
81.860092697,4259.0
81.876803966,4177.0
81.893515235,4324.0
81.910226504,4178.0
81.926937773,4212.0
81.943649042,4293.0
81.960360311,4283.0
81.977071580,4352.0
81.993782849,4362.0
82.010494118,4537.0
82.027205387,4600.0
82.043916656,4670.0
82.060627925,4491.0
82.077339194,4410.0
82.094050463,4349.0
82.110761732,4195.0
82.127473001,4242.0
82.144184270,4314.0
82.160895539,4331.0
82.177606808,4242.0
82.194318077,4097.0
82.211029346,4190.0
82.227740615,4368.0
82.244451884,4348.0
82.261163153,4293.0
82.277874422,4395.0
82.294585691,4350.0
82.311296960,4404.0
82.328008229,4304.0
82.344719498,4128.0
82.361430767,4232.0
82.378142036,4129.0
82.394853305,4209.0
82.411564574,4147.0
82.428275843,4186.0
82.444987112,4141.0
82.461698381,4178.0
82.478409650,4244.0
82.495120919,4242.0
82.511832188,4126.0
82.528543457,4129.0
82.545254726,4149.0
82.561965995,4152.0
82.578677264,4051.0
82.595388533,4215.0
82.612099802,4094.0
82.628811071,4211.0
82.645522340,4175.0
82.662233608,4199.0
82.678944877,4241.0
82.695656146,4248.0
82.712367415,4160.0
82.729078684,4152.0
82.745789953,4010.0
82.762501222,4131.0
82.779212491,4092.0
82.795923760,4213.0
82.812635029,4098.0
82.829346298,4181.0
82.846057567,4211.0
82.862768836,4129.0
82.879480105,4034.0
82.896191374,4197.0
82.912902643,4275.0
82.929613912,4122.0
82.946325181,4272.0
82.963036450,4104.0
82.979747719,4279.0
82.996458988,4143.0
83.013170257,4315.0
83.029881526,4157.0
83.046592795,4149.0
83.063304064,4135.0
83.080015333,4117.0
83.096726602,4210.0
83.113437871,4118.0
83.130149140,4149.0
83.146860409,4191.0
83.163571678,4053.0
83.180282947,4128.0
83.196994216,4256.0
83.213705485,4145.0
83.230416754,4113.0
83.247128023,4267.0
83.263839292,4096.0
83.280550561,4173.0
83.297261830,4006.0
83.313973099,4148.0
83.330684368,4151.0
83.347395637,4248.0
83.364106906,4146.0
83.380818175,4094.0
83.397529444,3953.0
83.414240713,4179.0
83.430951982,4221.0
83.447663251,4127.0
83.464374519,4167.0
83.481085788,4135.0
83.497797057,4248.0
83.514508326,4178.0
83.531219595,4232.0
83.547930864,4288.0
83.564642133,4075.0
83.581353402,4205.0
83.598064671,4222.0
83.614775940,4213.0
83.631487209,4133.0
83.648198478,4079.0
83.664909747,4143.0
83.681621016,4132.0
83.698332285,4165.0
83.715043554,4126.0
83.731754823,4080.0
83.748466092,4071.0
83.765177361,4294.0
83.781888630,4163.0
83.798599899,4161.0
83.815311168,4192.0
83.832022437,4209.0
83.848733706,4259.0
83.865444975,4272.0
83.882156244,4098.0
83.898867513,4263.0
83.915578782,4127.0
83.932290051,4251.0
83.949001320,4215.0
83.965712589,4157.0
83.982423858,4234.0
83.999135127,4190.0
84.015846396,4031.0
84.032557665,4151.0
84.049268934,4031.0
84.065980203,4073.0
84.082691472,4195.0
84.099402741,4237.0
84.116114010,4149.0
84.132825279,4050.0
84.149536548,4170.0
84.166247817,4011.0
84.182959086,4092.0
84.199670355,4147.0
84.216381624,4219.0
84.233092893,4183.0
84.249804162,4085.0
84.266515431,4229.0
84.283226699,4188.0
84.299937968,4157.0
84.316649237,4289.0
84.333360506,4260.0
84.350071775,4200.0
84.366783044,4185.0
84.383494313,4058.0
84.400205582,4239.0
84.416916851,4195.0
84.433628120,4110.0
84.450339389,4162.0
84.467050658,4138.0
84.483761927,4228.0
84.500473196,4206.0
84.517184465,4127.0
84.533895734,4171.0
84.550607003,4195.0
84.567318272,4109.0
84.584029541,4234.0
84.600740810,4215.0
84.617452079,4208.0
84.634163348,4194.0
84.650874617,4249.0
84.667585886,4078.0
84.684297155,4288.0
84.701008424,4141.0
84.717719693,4163.0
84.734430962,4299.0
84.751142231,4173.0
84.767853500,4120.0
84.784564769,4160.0
84.801276038,4109.0
84.817987307,4197.0
84.834698576,4086.0
84.851409845,4242.0
84.868121114,4164.0
84.884832383,4236.0
84.901543652,4078.0
84.918254921,4241.0
84.934966190,4199.0
84.951677459,4133.0
84.968388728,4105.0
84.985099997,4336.0
85.001811266,4122.0
85.018522535,4278.0
85.035233804,4193.0
85.051945073,4162.0
85.068656342,4140.0
85.085367610,4086.0
85.102078879,4172.0
85.118790148,4045.0
85.135501417,4177.0
85.152212686,4120.0
85.168923955,4147.0
85.185635224,4210.0
85.202346493,4075.0
85.219057762,4072.0
85.235769031,4143.0
85.252480300,4250.0
85.269191569,4108.0
85.285902838,4125.0
85.302614107,4149.0
85.319325376,4174.0
85.336036645,4255.0
85.352747914,4008.0
85.369459183,4130.0
85.386170452,4131.0
85.402881721,4191.0
85.419592990,4030.0
85.436304259,4158.0
85.453015528,4145.0
85.469726797,3970.0
85.486438066,4113.0
85.503149335,4222.0
85.519860604,4142.0
85.536571873,4107.0
85.553283142,4202.0
85.569994411,4221.0
85.586705680,4182.0
85.603416949,4068.0
85.620128218,4252.0
85.636839487,4050.0
85.653550756,3993.0
85.670262025,4097.0
85.686973294,4135.0
85.703684563,4158.0
85.720395832,4325.0
85.737107101,4086.0
85.753818370,4100.0
85.770529639,4153.0
85.787240908,4039.0
85.803952177,4112.0
85.820663446,4128.0
85.837374715,4229.0
85.854085984,4149.0
85.870797253,4133.0
85.887508521,4169.0
85.904219790,4083.0
85.920931059,4178.0
85.937642328,4192.0
85.954353597,4192.0
85.971064866,4068.0
85.987776135,4178.0
86.004487404,4113.0
86.021198673,4084.0
86.037909942,4248.0
86.054621211,4116.0
86.071332480,4258.0
86.088043749,4110.0
86.104755018,4066.0
86.121466287,4208.0
86.138177556,4106.0
86.154888825,4138.0
86.171600094,4158.0
86.188311363,4156.0
86.205022632,4107.0
86.221733901,4181.0
86.238445170,4150.0
86.255156439,4159.0
86.271867708,4230.0
86.288578977,4165.0
86.305290246,4085.0
86.322001515,4112.0
86.338712784,4295.0
86.355424053,4183.0
86.372135322,4109.0
86.388846591,4157.0
86.405557860,4052.0
86.422269129,4210.0
86.438980398,4168.0
86.455691667,4187.0
86.472402936,4278.0
86.489114205,4171.0
86.505825474,4023.0
86.522536743,4222.0
86.539248012,4166.0
86.555959281,4172.0
86.572670550,4254.0
86.589381819,4232.0
86.606093088,4171.0
86.622804357,4213.0
86.639515626,4297.0
86.656226895,4010.0
86.672938164,4206.0
86.689649432,4244.0
86.706360701,4129.0
86.723071970,4118.0
86.739783239,4225.0
86.756494508,4122.0
86.773205777,4114.0
86.789917046,4182.0
86.806628315,4087.0
86.823339584,4120.0
86.840050853,4235.0
86.856762122,4070.0
86.873473391,4365.0
86.890184660,4114.0
86.906895929,4151.0
86.923607198,4153.0
86.940318467,4092.0
86.957029736,4170.0
86.973741005,4203.0
86.990452274,4220.0
87.007163543,4194.0
87.023874812,3990.0
87.040586081,4169.0
87.057297350,4179.0
87.074008619,4246.0
87.090719888,4158.0
87.107431157,4123.0
87.124142426,4205.0
87.140853695,4185.0
87.157564964,4129.0
87.174276233,4300.0
87.190987502,4084.0
87.207698771,4177.0
87.224410040,4106.0
87.241121309,4107.0
87.257832578,4171.0
87.274543847,4181.0
87.291255116,4084.0
87.307966385,4243.0
87.324677654,4325.0
87.341388923,4112.0
87.358100192,4140.0
87.374811461,4186.0
87.391522730,4100.0
87.408233999,4115.0
87.424945268,4243.0
87.441656537,4130.0
87.458367806,4168.0
87.475079075,4150.0
87.491790344,4181.0
87.508501612,4170.0
87.525212881,4243.0
87.541924150,4053.0
87.558635419,4013.0
87.575346688,4057.0
87.592057957,4186.0
87.608769226,4117.0
87.625480495,4199.0
87.642191764,4150.0
87.658903033,4140.0
87.675614302,4104.0
87.692325571,4118.0
87.709036840,4257.0
87.725748109,4032.0
87.742459378,4109.0
87.759170647,4335.0
87.775881916,4122.0
87.792593185,4062.0
87.809304454,4103.0
87.826015723,4218.0
87.842726992,4146.0
87.859438261,4173.0
87.876149530,4126.0
87.892860799,4163.0
87.909572068,4176.0
87.926283337,4223.0
87.942994606,4140.0
87.959705875,4220.0
87.976417144,4159.0
87.993128413,4251.0
88.009839682,4251.0
88.026550951,4150.0
88.043262220,4138.0
88.059973489,4129.0
88.076684758,4065.0
88.093396027,4202.0
88.110107296,4133.0
88.126818565,4212.0
88.143529834,4267.0
88.160241103,4108.0
88.176952372,4227.0
88.193663641,4240.0
88.210374910,4138.0
88.227086179,4162.0
88.243797448,4168.0
88.260508717,4108.0
88.277219986,4188.0
88.293931255,4195.0
88.310642523,4296.0
88.327353792,4288.0
88.344065061,4191.0
88.360776330,4187.0
88.377487599,4037.0
88.394198868,4064.0
88.410910137,4196.0
88.427621406,4129.0
88.444332675,4263.0
88.461043944,4174.0
88.477755213,4121.0
88.494466482,4182.0
88.511177751,4024.0
88.527889020,4117.0
88.544600289,4229.0
88.561311558,4138.0
88.578022827,4116.0
88.594734096,4182.0
88.611445365,4034.0
88.628156634,4139.0
88.644867903,4173.0
88.661579172,4139.0
88.678290441,4169.0
88.695001710,4183.0
88.711712979,4203.0
88.728424248,4004.0
88.745135517,4243.0
88.761846786,4204.0
88.778558055,4213.0
88.795269324,4157.0
88.811980593,4147.0
88.828691862,4147.0
88.845403131,4176.0
88.862114400,4235.0
88.878825669,4100.0
88.895536938,4136.0
88.912248207,4162.0
88.928959476,4150.0
88.945670745,4220.0
88.962382014,4237.0
88.979093283,4265.0
88.995804552,4305.0
89.012515821,4109.0
89.029227090,4129.0
89.045938359,4059.0
89.062649628,4281.0
89.079360897,4188.0
89.096072166,4177.0
89.112783434,4072.0
89.129494703,4231.0
89.146205972,4084.0
89.162917241,4116.0
89.179628510,3971.0
89.196339779,4035.0
89.213051048,4162.0
89.229762317,4230.0
89.246473586,4275.0
89.263184855,4163.0
89.279896124,4229.0
89.296607393,4259.0
89.313318662,4212.0
89.330029931,4284.0
89.346741200,4206.0
89.363452469,4216.0
89.380163738,4105.0
89.396875007,4361.0
89.413586276,4123.0
89.430297545,4388.0
89.447008814,4192.0
89.463720083,4288.0
89.480431352,4145.0
89.497142621,4311.0
89.513853890,4403.0
89.530565159,4319.0
89.547276428,4350.0
89.563987697,4390.0
89.580698966,4385.0
89.597410235,4454.0
89.614121504,4495.0
89.630832773,4644.0
89.647544042,4723.0
89.664255311,4730.0
89.680966580,4787.0
89.697677849,4857.0
89.714389118,5048.0
89.731100387,5178.0
89.747811656,5371.0
89.764522925,5516.0
89.781234194,5516.0
89.797945463,5686.0
89.814656732,5884.0
89.831368001,6114.0
89.848079270,6334.0
89.864790539,6665.0
89.881501808,6960.0
89.898213077,7203.0
89.914924345,7613.0
89.931635614,7793.0
89.948346883,7785.0
89.965058152,8049.0
89.981769421,8150.0
89.998480690,8255.0
90.015191959,8263.0
90.031903228,8263.0
90.048614497,8468.0
90.065325766,8249.0
90.082037035,8484.0
90.098748304,8699.0
90.115459573,8693.0
90.132170842,8774.0
90.148882111,8628.0
90.165593380,8258.0
90.182304649,7925.0
90.199015918,7670.0
90.215727187,7255.0
90.232438456,6978.0
90.249149725,6906.0
90.265860994,6725.0
90.282572263,6362.0
90.299283532,6318.0
90.315994801,6365.0
90.332706070,6383.0
90.349417339,6301.0
90.366128608,6258.0
90.382839877,6098.0
90.399551146,6137.0
90.416262415,6118.0
90.432973684,5779.0
90.449684953,5522.0
90.466396222,5388.0
90.483107491,5267.0
90.499818760,5225.0
90.516530029,4875.0
90.533241298,4739.0
90.549952567,4671.0
90.566663836,4556.0
90.583375105,4450.0
90.600086374,4426.0
90.616797643,4367.0
90.633508912,4336.0
90.650220181,4305.0
90.666931450,4229.0
90.683642719,4320.0
90.700353988,4302.0
90.717065257,4231.0
90.733776525,4248.0
90.750487794,4239.0
90.767199063,4288.0
90.783910332,4157.0
90.800621601,4166.0
90.817332870,4290.0
90.834044139,4150.0
90.850755408,4220.0
90.867466677,4300.0
90.884177946,4199.0
90.900889215,4318.0
90.917600484,4245.0
90.934311753,4234.0
90.951023022,4217.0
90.967734291,4228.0
90.984445560,4246.0
91.001156829,4291.0
91.017868098,4138.0
91.034579367,4150.0
91.051290636,4312.0
91.068001905,4254.0
91.084713174,4084.0
91.101424443,4241.0
91.118135712,4248.0
91.134846981,4230.0
91.151558250,4223.0
91.168269519,4342.0
91.184980788,4361.0
91.201692057,4318.0
91.218403326,4250.0
91.235114595,4114.0
91.251825864,4192.0
91.268537133,4230.0
91.285248402,4203.0
91.301959671,4262.0
91.318670940,4249.0
91.335382209,4369.0
91.352093478,4334.0
91.368804747,4301.0
91.385516016,4396.0
91.402227285,4181.0
91.418938554,4313.0
91.435649823,4410.0
91.452361092,4372.0
91.469072361,4381.0
91.485783630,4395.0
91.502494899,4379.0
91.519206168,4417.0
91.535917436,4427.0
91.552628705,4319.0
91.569339974,4338.0
91.586051243,4429.0
91.602762512,4447.0
91.619473781,4366.0
91.636185050,4331.0
91.652896319,4436.0
91.669607588,4308.0
91.686318857,4356.0
91.703030126,4366.0
91.719741395,4428.0
91.736452664,4488.0
91.753163933,4572.0
91.769875202,4397.0
91.786586471,4502.0
91.803297740,4570.0
91.820009009,4578.0
91.836720278,4555.0
91.853431547,4483.0
91.870142816,4508.0
91.886854085,4573.0
91.903565354,4457.0
91.920276623,4468.0
91.936987892,4576.0
91.953699161,4489.0
91.970410430,4492.0
91.987121699,4453.0
92.003832968,4496.0
92.020544237,4501.0
92.037255506,4570.0
92.053966775,4497.0
92.070678044,4653.0
92.087389313,4501.0
92.104100582,4520.0
92.120811851,4667.0
92.137523120,4473.0
92.154234389,4400.0
92.170945658,4616.0
92.187656927,4575.0
92.204368196,4544.0
92.221079465,4399.0
92.237790734,4637.0
92.254502003,4443.0
92.271213272,4343.0
92.287924541,4272.0
92.304635810,4475.0
92.321347079,4461.0
92.338058347,4405.0
92.354769616,4354.0
92.371480885,4378.0
92.388192154,4349.0
92.404903423,4354.0
92.421614692,4408.0
92.438325961,4444.0
92.455037230,4175.0
92.471748499,4424.0
92.488459768,4298.0
92.505171037,4357.0
92.521882306,4375.0
92.538593575,4266.0
92.555304844,4307.0
92.572016113,4325.0
92.588727382,4301.0
92.605438651,4284.0
92.622149920,4192.0
92.638861189,4213.0
92.655572458,4270.0
92.672283727,4237.0
92.688994996,4219.0
92.705706265,4418.0
92.722417534,4405.0
92.739128803,4223.0
92.755840072,4254.0
92.772551341,4149.0
92.789262610,4248.0
92.805973879,4213.0
92.822685148,4153.0
92.839396417,4225.0
92.856107686,4208.0
92.872818955,4199.0
92.889530224,4224.0
92.906241493,4170.0
92.922952762,4229.0
92.939664031,4303.0
92.956375300,4233.0
92.973086569,4172.0
92.989797838,4209.0
93.006509107,4163.0
93.023220376,4085.0
93.039931645,4235.0
93.056642914,4341.0
93.073354183,4223.0
93.090065452,4101.0
93.106776721,4166.0
93.123487990,4170.0
93.140199258,4136.0
93.156910527,4233.0
93.173621796,4158.0
93.190333065,4139.0
93.207044334,4009.0
93.223755603,4149.0
93.240466872,4207.0
93.257178141,4171.0
93.273889410,3944.0
93.290600679,4070.0
93.307311948,4212.0
93.324023217,4208.0
93.340734486,4185.0
93.357445755,4142.0
93.374157024,4269.0
93.390868293,4216.0
93.407579562,4002.0
93.424290831,4108.0
93.441002100,4136.0
93.457713369,4295.0
93.474424638,4088.0
93.491135907,4203.0
93.507847176,4144.0
93.524558445,4118.0
93.541269714,4103.0
93.557980983,4206.0
93.574692252,4105.0
93.591403521,4318.0
93.608114790,4211.0
93.624826059,4371.0
93.641537328,4215.0
93.658248597,4217.0
93.674959866,4201.0
93.691671135,4126.0
93.708382404,4142.0
93.725093673,4228.0
93.741804942,4238.0
93.758516211,4158.0
93.775227480,4239.0
93.791938749,4150.0
93.808650018,4158.0
93.825361287,4130.0
93.842072556,4230.0
93.858783825,4109.0
93.875495094,4085.0
93.892206363,4212.0
93.908917632,4171.0
93.925628901,4304.0
93.942340170,4312.0
93.959051438,4173.0
93.975762707,4141.0
93.992473976,4107.0
94.009185245,4187.0
94.025896514,4230.0
94.042607783,4297.0
94.059319052,4284.0
94.076030321,4230.0
94.092741590,4144.0
94.109452859,4252.0
94.126164128,4175.0
94.142875397,4229.0
94.159586666,4247.0
94.176297935,4222.0
94.193009204,4208.0
94.209720473,4134.0
94.226431742,4183.0
94.243143011,4166.0
94.259854280,4305.0
94.276565549,4215.0
94.293276818,4009.0
94.309988087,4177.0
94.326699356,4088.0
94.343410625,4267.0
94.360121894,4208.0
94.376833163,4201.0
94.393544432,4177.0
94.410255701,4236.0
94.426966970,4073.0
94.443678239,4098.0
94.460389508,4243.0
94.477100777,4203.0
94.493812046,4217.0
94.510523315,4149.0
94.527234584,4308.0
94.543945853,4155.0
94.560657122,4128.0
94.577368391,4214.0
94.594079660,4144.0
94.610790929,4273.0
94.627502198,4147.0
94.644213467,4188.0
94.660924736,4192.0
94.677636005,4322.0
94.694347274,4148.0
94.711058543,4217.0
94.727769812,4276.0
94.744481081,4222.0
94.761192349,4389.0
94.777903618,4275.0
94.794614887,4471.0
94.811326156,4253.0
94.828037425,4387.0
94.844748694,4343.0
94.861459963,4322.0
94.878171232,4330.0
94.894882501,4343.0
94.911593770,4545.0
94.928305039,4448.0
94.945016308,4476.0
94.961727577,4494.0
94.978438846,4585.0
94.995150115,4641.0
95.011861384,4924.0
95.028572653,5008.0
95.045283922,5183.0
95.061995191,5509.0
95.078706460,5848.0
95.095417729,6007.0
95.112128998,5996.0
95.128840267,6037.0
95.145551536,5926.0
95.162262805,6004.0
95.178974074,5988.0
95.195685343,6120.0
95.212396612,6235.0
95.229107881,6537.0
95.245819150,6894.0
95.262530419,6997.0
95.279241688,7379.0
95.295952957,7756.0
95.312664226,8239.0
95.329375495,8512.0
95.346086764,8319.0
95.362798033,7891.0
95.379509302,7389.0
95.396220571,7019.0
95.412931840,6389.0
95.429643109,6063.0
95.446354378,5879.0
95.463065647,5539.0
95.479776916,5410.0
95.496488185,5352.0
95.513199454,5376.0
95.529910723,5409.0
95.546621992,5425.0
95.563333260,5648.0
95.580044529,5734.0
95.596755798,5728.0
95.613467067,6142.0
95.630178336,6163.0
95.646889605,6080.0
95.663600874,6046.0
95.680312143,5805.0
95.697023412,5278.0
95.713734681,5109.0
95.730445950,4852.0
95.747157219,4663.0
95.763868488,4598.0
95.780579757,4503.0
95.797291026,4439.0
95.814002295,4419.0
95.830713564,4410.0
95.847424833,4308.0
95.864136102,4394.0
95.880847371,4224.0
95.897558640,4230.0
95.914269909,4264.0
95.930981178,4176.0
95.947692447,4208.0
95.964403716,4256.0
95.981114985,4219.0
95.997826254,4259.0
96.014537523,4226.0
96.031248792,4303.0
96.047960061,4007.0
96.064671330,4352.0
96.081382599,4215.0
96.098093868,4218.0
96.114805137,4212.0
96.131516406,4247.0
96.148227675,4239.0
96.164938944,4165.0
96.181650213,4189.0
96.198361482,4123.0
96.215072751,4136.0
96.231784020,4205.0
96.248495289,4188.0
96.265206558,4164.0
96.281917827,4129.0
96.298629096,4072.0
96.315340365,4077.0
96.332051634,4110.0
96.348762903,4125.0
96.365474171,4198.0
96.382185440,4293.0
96.398896709,4173.0
96.415607978,4298.0
96.432319247,4140.0
96.449030516,4368.0
96.465741785,4240.0
96.482453054,4192.0
96.499164323,4346.0
96.515875592,4164.0
96.532586861,4164.0
96.549298130,4084.0
96.566009399,4275.0
96.582720668,4099.0
96.599431937,4204.0
96.616143206,4211.0
96.632854475,4110.0
96.649565744,4231.0
96.666277013,4238.0
96.682988282,4251.0
96.699699551,4192.0
96.716410820,4194.0
96.733122089,4116.0
96.749833358,4092.0
96.766544627,4184.0
96.783255896,4033.0
96.799967165,4114.0
96.816678434,4180.0
96.833389703,4080.0
96.850100972,4188.0
96.866812241,4210.0
96.883523510,4234.0
96.900234779,4070.0
96.916946048,4170.0
96.933657317,4095.0
96.950368586,4182.0
96.967079855,4202.0
96.983791124,4289.0
97.000502393,4177.0
97.017213662,4151.0
97.033924931,4078.0
97.050636200,4128.0
97.067347469,4169.0
97.084058738,4223.0
97.100770007,4271.0
97.117481276,4182.0
97.134192545,4080.0
97.150903814,4283.0
97.167615083,4289.0
97.184326351,4236.0
97.201037620,4004.0
97.217748889,4204.0
97.234460158,4199.0
97.251171427,4158.0
97.267882696,4144.0
97.284593965,4151.0
97.301305234,4174.0
97.318016503,4176.0
97.334727772,4227.0
97.351439041,4205.0
97.368150310,4122.0
97.384861579,4203.0
97.401572848,4215.0
97.418284117,4170.0
97.434995386,4171.0
97.451706655,4235.0
97.468417924,4075.0
97.485129193,4151.0
97.501840462,4185.0
97.518551731,4177.0
97.535263000,4179.0
97.551974269,4197.0
97.568685538,4120.0
97.585396807,4157.0
97.602108076,4269.0
97.618819345,4221.0
97.635530614,4191.0
97.652241883,4119.0
97.668953152,4194.0
97.685664421,4255.0
97.702375690,4185.0
97.719086959,4219.0
97.735798228,4132.0
97.752509497,4231.0
97.769220766,4112.0
97.785932035,4138.0
97.802643304,4289.0
97.819354573,4128.0
97.836065842,4199.0
97.852777111,4144.0
97.869488380,4187.0
97.886199649,4073.0
97.902910918,4077.0
97.919622187,4285.0
97.936333456,4213.0
97.953044725,4137.0
97.969755994,4185.0
97.986467262,4199.0
98.003178531,4209.0
98.019889800,4088.0
98.036601069,4237.0
98.053312338,4027.0
98.070023607,4250.0
98.086734876,4220.0
98.103446145,4060.0
98.120157414,4226.0
98.136868683,4204.0
98.153579952,4186.0
98.170291221,4219.0
98.187002490,4325.0
98.203713759,4202.0
98.220425028,4150.0
98.237136297,4188.0
98.253847566,4187.0
98.270558835,4162.0
98.287270104,4176.0
98.303981373,4225.0
98.320692642,4180.0
98.337403911,4205.0
98.354115180,4197.0
98.370826449,4242.0
98.387537718,4241.0
98.404248987,4208.0
98.420960256,4275.0
98.437671525,4174.0
98.454382794,4225.0
98.471094063,4221.0
98.487805332,4085.0
98.504516601,4189.0
98.521227870,4115.0
98.537939139,4213.0
98.554650408,4273.0
98.571361677,4291.0
98.588072946,4211.0
98.604784215,4268.0
98.621495484,4150.0
98.638206753,4126.0
98.654918022,4148.0
98.671629291,4088.0
98.688340560,4114.0
98.705051829,4258.0
98.721763098,4357.0
98.738474367,4156.0
98.755185636,4073.0
98.771896905,4075.0
98.788608173,4178.0
98.805319442,4064.0
98.822030711,4151.0
98.838741980,4219.0
98.855453249,4239.0
98.872164518,4140.0
98.888875787,4112.0
98.905587056,4113.0
98.922298325,4072.0
98.939009594,4104.0
98.955720863,4305.0
98.972432132,4209.0
98.989143401,4130.0
99.005854670,4267.0
99.022565939,4210.0
99.039277208,4160.0
99.055988477,4259.0
99.072699746,4192.0
99.089411015,4128.0
99.106122284,4184.0
99.122833553,4193.0
99.139544822,4069.0
99.156256091,4227.0
99.172967360,4208.0
99.189678629,4168.0
99.206389898,4286.0
99.223101167,4188.0
99.239812436,4208.0
99.256523705,4140.0
99.273234974,4108.0
99.289946243,4157.0
99.306657512,4200.0
99.323368781,4260.0
99.340080050,4230.0
99.356791319,4193.0
99.373502588,4239.0
99.390213857,4233.0
99.406925126,4142.0
99.423636395,4194.0
99.440347664,4251.0
99.457058933,4068.0
99.473770202,4155.0
99.490481471,4241.0
99.507192740,4186.0
99.523904009,4252.0
99.540615278,4178.0
99.557326547,4254.0
99.574037816,4274.0
99.590749084,4086.0
99.607460353,4149.0
99.624171622,4261.0
99.640882891,4149.0
99.657594160,4216.0
99.674305429,4260.0
99.691016698,4280.0
99.707727967,4059.0
99.724439236,4225.0
99.741150505,4219.0
99.757861774,4214.0
99.774573043,4185.0
99.791284312,4104.0
99.807995581,4113.0
99.824706850,4268.0
99.841418119,4217.0
99.858129388,4194.0
99.874840657,4076.0
99.891551926,4116.0
99.908263195,4189.0
99.924974464,4303.0
99.941685733,4133.0
99.958397002,4215.0
99.975108271,4158.0
99.991819540,4181.0
