[Measurement conditions]
Sample identification,
Comment - 1,"finito"
Comment - 2,"Configuration=MRI TC-Basic Stage, Owner=User-1, Creation date=26-10-2009 9:18:44"
Comment - 3,"Goniometer=PW3050/60 (Theta/Theta); Minimum step size 2Theta:0.001; Minimum step size Omega:0.001"
Comment - 4,"Sample stage=MRI TC-Basic (PtRh heat strip)"
Comment - 5,"Diffractometer system=XPERT-PRO"
Comment - 6,"Measurement program=FS-L, Owner=joana, Creation date=25-11-2014 17:28:08"
Anode material,Cu
K-Alpha1 wavelength,1.5405980
K-Alpha2 wavelength,1.5444260
Ratio K-Alpha2/K-Alpha1,0.500
Divergence slit,Fixed,0.76mm
Monochromator used,NO
Generator voltage, 45
Tube current, 40
File date and time,16-Dez-2017 01:22
Unit cell,
h k l, 0 0 0
Temperature [K],673
Scan axis,Gonio
Scan range,24.995999996,94.999505744
Scan step size,0.0167113
No. of points, 4189
Scan type,CONTINUOUS
Time per step,118.110
[Scan points]
Angle,Intensity
25.004355630,2281.0
25.021066899,2188.0
25.037778168,2178.0
25.054489437,2213.0
25.071200706,2117.0
25.087911975,2190.0
25.104623244,2211.0
25.121334513,2235.0
25.138045782,2216.0
25.154757051,2233.0
25.171468320,2162.0
25.188179589,2317.0
25.204890858,2152.0
25.221602127,2165.0
25.238313396,2135.0
25.255024665,2205.0
25.271735934,2207.0
25.288447203,2126.0
25.305158472,2228.0
25.321869741,2228.0
25.338581010,2193.0
25.355292279,2223.0
25.372003548,2237.0
25.388714816,2219.0
25.405426085,2218.0
25.422137354,2235.0
25.438848623,2161.0
25.455559892,2206.0
25.472271161,2217.0
25.488982430,2261.0
25.505693699,2243.0
25.522404968,2218.0
25.539116237,2271.0
25.555827506,2179.0
25.572538775,2099.0
25.589250044,2164.0
25.605961313,2238.0
25.622672582,2231.0
25.639383851,2104.0
25.656095120,2192.0
25.672806389,2183.0
25.689517658,2158.0
25.706228927,2197.0
25.722940196,2173.0
25.739651465,2290.0
25.756362734,2171.0
25.773074003,2184.0
25.789785272,2303.0
25.806496541,2225.0
25.823207810,2238.0
25.839919079,2235.0
25.856630348,2167.0
25.873341617,2154.0
25.890052886,2262.0
25.906764155,2313.0
25.923475424,2185.0
25.940186693,2175.0
25.956897962,2176.0
25.973609231,2182.0
25.990320500,2155.0
26.007031769,2204.0
26.023743038,2146.0
26.040454307,2157.0
26.057165576,2151.0
26.073876845,2175.0
26.090588114,2081.0
26.107299383,2210.0
26.124010652,2192.0
26.140721921,2185.0
26.157433189,2242.0
26.174144458,2120.0
26.190855727,2217.0
26.207566996,2173.0
26.224278265,2210.0
26.240989534,2140.0
26.257700803,2155.0
26.274412072,2251.0
26.291123341,2162.0
26.307834610,2220.0
26.324545879,2080.0
26.341257148,2222.0
26.357968417,2196.0
26.374679686,2146.0
26.391390955,2180.0
26.408102224,2171.0
26.424813493,2140.0
26.441524762,2265.0
26.458236031,2170.0
26.474947300,2204.0
26.491658569,2242.0
26.508369838,2137.0
26.525081107,2062.0
26.541792376,2137.0
26.558503645,2219.0
26.575214914,2222.0
26.591926183,2110.0
26.608637452,2227.0
26.625348721,2108.0
26.642059990,2189.0
26.658771259,2192.0
26.675482528,2218.0
26.692193797,2155.0
26.708905066,2136.0
26.725616335,2207.0
26.742327604,2216.0
26.759038873,2145.0
26.775750142,2176.0
26.792461411,2174.0
26.809172680,2077.0
26.825883949,2261.0
26.842595218,2201.0
26.859306487,2109.0
26.876017756,2104.0
26.892729025,2205.0
26.909440293,2215.0
26.926151562,2187.0
26.942862831,2133.0
26.959574100,2156.0
26.976285369,2163.0
26.992996638,2134.0
27.009707907,2162.0
27.026419176,2149.0
27.043130445,2131.0
27.059841714,2062.0
27.076552983,2238.0
27.093264252,2112.0
27.109975521,2141.0
27.126686790,2090.0
27.143398059,2139.0
27.160109328,2140.0
27.176820597,2146.0
27.193531866,2124.0
27.210243135,2115.0
27.226954404,2126.0
27.243665673,2194.0
27.260376942,2077.0
27.277088211,2134.0
27.293799480,2182.0
27.310510749,2210.0
27.327222018,2179.0
27.343933287,2152.0
27.360644556,2132.0
27.377355825,2150.0
27.394067094,2206.0
27.410778363,2129.0
27.427489632,2166.0
27.444200901,2226.0
27.460912170,2112.0
27.477623439,2179.0
27.494334708,2080.0
27.511045977,2140.0
27.527757246,2179.0
27.544468515,2164.0
27.561179784,2173.0
27.577891053,2105.0
27.594602322,2164.0
27.611313591,2209.0
27.628024860,2135.0
27.644736129,2117.0
27.661447398,2160.0
27.678158666,2250.0
27.694869935,2198.0
27.711581204,2185.0
27.728292473,2211.0
27.745003742,2258.0
27.761715011,2146.0
27.778426280,2260.0
27.795137549,2129.0
27.811848818,2104.0
27.828560087,2150.0
27.845271356,2222.0
27.861982625,2234.0
27.878693894,2149.0
27.895405163,2126.0
27.912116432,2139.0
27.928827701,2103.0
27.945538970,2224.0
27.962250239,2239.0
27.978961508,2100.0
27.995672777,2261.0
28.012384046,2131.0
28.029095315,2152.0
28.045806584,2258.0
28.062517853,2164.0
28.079229122,2104.0
28.095940391,2121.0
28.112651660,2199.0
28.129362929,2139.0
28.146074198,2093.0
28.162785467,2253.0
28.179496736,2242.0
28.196208005,2191.0
28.212919274,2201.0
28.229630543,2169.0
28.246341812,2147.0
28.263053081,2415.0
28.279764350,3028.0
28.296475619,3113.0
28.313186888,2477.0
28.329898157,2320.0
28.346609426,2504.0
28.363320695,2881.0
28.380031964,2447.0
28.396743233,2242.0
28.413454502,2292.0
28.430165770,2283.0
28.446877039,2358.0
28.463588308,2296.0
28.480299577,2373.0
28.497010846,2351.0
28.513722115,2402.0
28.530433384,2327.0
28.547144653,2318.0
28.563855922,2371.0
28.580567191,2302.0
28.597278460,2285.0
28.613989729,2246.0
28.630700998,2325.0
28.647412267,2275.0
28.664123536,2310.0
28.680834805,2267.0
28.697546074,2195.0
28.714257343,2246.0
28.730968612,2300.0
28.747679881,2259.0
28.764391150,2194.0
28.781102419,2217.0
28.797813688,2211.0
28.814524957,2139.0
28.831236226,2138.0
28.847947495,2169.0
28.864658764,2182.0
28.881370033,2151.0
28.898081302,2177.0
28.914792571,2182.0
28.931503840,2173.0
28.948215109,2184.0
28.964926378,2157.0
28.981637647,2146.0
28.998348916,2208.0
29.015060185,2268.0
29.031771454,2222.0
29.048482723,2162.0
29.065193992,2155.0
29.081905261,2222.0
29.098616530,2219.0
29.115327799,2100.0
29.132039068,2240.0
29.148750337,2111.0
29.165461606,2148.0
29.182172875,2050.0
29.198884143,2213.0
29.215595412,2111.0
29.232306681,2069.0
29.249017950,2164.0
29.265729219,2217.0
29.282440488,2250.0
29.299151757,2194.0
29.315863026,2054.0
29.332574295,2098.0
29.349285564,2145.0
29.365996833,2227.0
29.382708102,2135.0
29.399419371,2061.0
29.416130640,2175.0
29.432841909,2118.0
29.449553178,2102.0
29.466264447,2077.0
29.482975716,2154.0
29.499686985,2179.0
29.516398254,2101.0
29.533109523,2138.0
29.549820792,2194.0
29.566532061,2120.0
29.583243330,2114.0
29.599954599,2125.0
29.616665868,2091.0
29.633377137,2087.0
29.650088406,2231.0
29.666799675,2241.0
29.683510944,2117.0
29.700222213,2120.0
29.716933482,2121.0
29.733644751,2198.0
29.750356020,2153.0
29.767067289,2167.0
29.783778558,2126.0
29.800489827,2187.0
29.817201096,2190.0
29.833912365,2187.0
29.850623634,2085.0
29.867334903,2074.0
29.884046172,2128.0
29.900757441,2119.0
29.917468710,2152.0
29.934179979,2090.0
29.950891247,2129.0
29.967602516,2211.0
29.984313785,2188.0
30.001025054,2207.0
30.017736323,2182.0
30.034447592,2189.0
30.051158861,2118.0
30.067870130,2096.0
30.084581399,2093.0
30.101292668,2194.0
30.118003937,2139.0
30.134715206,2183.0
30.151426475,2164.0
30.168137744,2165.0
30.184849013,2117.0
30.201560282,2084.0
30.218271551,2126.0
30.234982820,2107.0
30.251694089,2059.0
30.268405358,2010.0
30.285116627,2128.0
30.301827896,2149.0
30.318539165,2109.0
30.335250434,2279.0
30.351961703,2060.0
30.368672972,2117.0
30.385384241,2254.0
30.402095510,2071.0
30.418806779,2211.0
30.435518048,2024.0
30.452229317,2120.0
30.468940586,2140.0
30.485651855,2133.0
30.502363124,2180.0
30.519074393,2109.0
30.535785662,1971.0
30.552496931,2185.0
30.569208200,2146.0
30.585919469,2117.0
30.602630738,2146.0
30.619342007,2115.0
30.636053276,2144.0
30.652764545,2043.0
30.669475814,2084.0
30.686187083,2093.0
30.702898352,2091.0
30.719609620,2119.0
30.736320889,2131.0
30.753032158,2126.0
30.769743427,2188.0
30.786454696,2133.0
30.803165965,2124.0
30.819877234,2179.0
30.836588503,2154.0
30.853299772,2110.0
30.870011041,2103.0
30.886722310,2188.0
30.903433579,2066.0
30.920144848,2083.0
30.936856117,2132.0
30.953567386,2141.0
30.970278655,2157.0
30.986989924,2076.0
31.003701193,2030.0
31.020412462,2156.0
31.037123731,2109.0
31.053835000,2105.0
31.070546269,2154.0
31.087257538,2084.0
31.103968807,2164.0
31.120680076,2059.0
31.137391345,2117.0
31.154102614,2177.0
31.170813883,2140.0
31.187525152,2187.0
31.204236421,2126.0
31.220947690,2248.0
31.237658959,2042.0
31.254370228,2043.0
31.271081497,2191.0
31.287792766,2123.0
31.304504035,2202.0
31.321215304,2159.0
31.337926573,2133.0
31.354637842,2089.0
31.371349111,2100.0
31.388060380,2118.0
31.404771649,2117.0
31.421482918,2061.0
31.438194187,2138.0
31.454905456,2155.0
31.471616724,2204.0
31.488327993,2136.0
31.505039262,2081.0
31.521750531,2169.0
31.538461800,2111.0
31.555173069,2079.0
31.571884338,2127.0
31.588595607,2092.0
31.605306876,2155.0
31.622018145,2078.0
31.638729414,2142.0
31.655440683,2104.0
31.672151952,2168.0
31.688863221,2148.0
31.705574490,2091.0
31.722285759,2105.0
31.738997028,2143.0
31.755708297,2068.0
31.772419566,2072.0
31.789130835,2071.0
31.805842104,2065.0
31.822553373,2126.0
31.839264642,2144.0
31.855975911,2131.0
31.872687180,2077.0
31.889398449,2023.0
31.906109718,2151.0
31.922820987,2087.0
31.939532256,2112.0
31.956243525,2100.0
31.972954794,2157.0
31.989666063,2040.0
32.006377332,2075.0
32.023088601,2171.0
32.039799870,2039.0
32.056511139,2117.0
32.073222408,2235.0
32.089933677,2094.0
32.106644946,2136.0
32.123356215,2079.0
32.140067484,2071.0
32.156778753,2205.0
32.173490022,2113.0
32.190201291,2127.0
32.206912560,2130.0
32.223623829,2107.0
32.240335097,2131.0
32.257046366,2148.0
32.273757635,2079.0
32.290468904,2147.0
32.307180173,2151.0
32.323891442,2089.0
32.340602711,2076.0
32.357313980,2113.0
32.374025249,2170.0
32.390736518,2141.0
32.407447787,2110.0
32.424159056,2107.0
32.440870325,2162.0
32.457581594,2094.0
32.474292863,2079.0
32.491004132,2146.0
32.507715401,2103.0
32.524426670,2197.0
32.541137939,2074.0
32.557849208,2154.0
32.574560477,2123.0
32.591271746,2117.0
32.607983015,2158.0
32.624694284,2139.0
32.641405553,2197.0
32.658116822,2155.0
32.674828091,2086.0
32.691539360,2174.0
32.708250629,2148.0
32.724961898,2201.0
32.741673167,2198.0
32.758384436,2111.0
32.775095705,2100.0
32.791806974,2121.0
32.808518243,2110.0
32.825229512,2144.0
32.841940781,2163.0
32.858652050,2165.0
32.875363319,2158.0
32.892074588,2114.0
32.908785857,2165.0
32.925497126,2122.0
32.942208395,2211.0
32.958919664,2100.0
32.975630933,2213.0
32.992342201,2122.0
33.009053470,2186.0
33.025764739,2100.0
33.042476008,2128.0
33.059187277,2111.0
33.075898546,2194.0
33.092609815,2150.0
33.109321084,2172.0
33.126032353,2073.0
33.142743622,2251.0
33.159454891,2133.0
33.176166160,2112.0
33.192877429,2113.0
33.209588698,2115.0
33.226299967,2116.0
33.243011236,2111.0
33.259722505,2178.0
33.276433774,2079.0
33.293145043,2171.0
33.309856312,2154.0
33.326567581,2107.0
33.343278850,2060.0
33.359990119,2122.0
33.376701388,2132.0
33.393412657,2136.0
33.410123926,2121.0
33.426835195,2140.0
33.443546464,2093.0
33.460257733,2061.0
33.476969002,2199.0
33.493680271,2043.0
33.510391540,2122.0
33.527102809,2057.0
33.543814078,2149.0
33.560525347,2122.0
33.577236616,2114.0
33.593947885,2049.0
33.610659154,2119.0
33.627370423,2105.0
33.644081692,1999.0
33.660792961,2050.0
33.677504230,2096.0
33.694215499,2165.0
33.710926768,2211.0
33.727638037,2067.0
33.744349306,2132.0
33.761060574,2104.0
33.777771843,2146.0
33.794483112,2151.0
33.811194381,2108.0
33.827905650,2089.0
33.844616919,2043.0
33.861328188,2050.0
33.878039457,2101.0
33.894750726,1995.0
33.911461995,2085.0
33.928173264,2032.0
33.944884533,2075.0
33.961595802,2197.0
33.978307071,2173.0
33.995018340,2103.0
34.011729609,2088.0
34.028440878,2072.0
34.045152147,2050.0
34.061863416,2030.0
34.078574685,2129.0
34.095285954,2079.0
34.111997223,2132.0
34.128708492,2104.0
34.145419761,2079.0
34.162131030,2152.0
34.178842299,2054.0
34.195553568,2078.0
34.212264837,1985.0
34.228976106,2056.0
34.245687375,2085.0
34.262398644,2177.0
34.279109913,2041.0
34.295821182,2058.0
34.312532451,2157.0
34.329243720,2062.0
34.345954989,2069.0
34.362666258,2063.0
34.379377527,2034.0
34.396088796,2144.0
34.412800065,2109.0
34.429511334,2040.0
34.446222603,2090.0
34.462933872,2107.0
34.479645141,2061.0
34.496356410,2194.0
34.513067679,2089.0
34.529778947,2075.0
34.546490216,2113.0
34.563201485,2167.0
34.579912754,2107.0
34.596624023,2074.0
34.613335292,2105.0
34.630046561,2090.0
34.646757830,2108.0
34.663469099,2184.0
34.680180368,2110.0
34.696891637,2043.0
34.713602906,2076.0
34.730314175,1995.0
34.747025444,2113.0
34.763736713,2064.0
34.780447982,2117.0
34.797159251,2149.0
34.813870520,2130.0
34.830581789,2020.0
34.847293058,2059.0
34.864004327,1968.0
34.880715596,2001.0
34.897426865,2095.0
34.914138134,2034.0
34.930849403,2065.0
34.947560672,2125.0
34.964271941,2055.0
34.980983210,2128.0
34.997694479,2102.0
35.014405748,2129.0
35.031117017,2082.0
35.047828286,2075.0
35.064539555,2063.0
35.081250824,2080.0
35.097962093,2073.0
35.114673362,2082.0
35.131384631,2153.0
35.148095900,2093.0
35.164807169,2077.0
35.181518438,2130.0
35.198229707,2158.0
35.214940976,2110.0
35.231652245,2108.0
35.248363514,2079.0
35.265074783,2058.0
35.281786051,2111.0
35.298497320,2076.0
35.315208589,2034.0
35.331919858,2034.0
35.348631127,2094.0
35.365342396,2096.0
35.382053665,2266.0
35.398764934,2155.0
35.415476203,2129.0
35.432187472,2068.0
35.448898741,2117.0
35.465610010,2077.0
35.482321279,2047.0
35.499032548,2142.0
35.515743817,2180.0
35.532455086,2167.0
35.549166355,2062.0
35.565877624,2144.0
35.582588893,2079.0
35.599300162,2104.0
35.616011431,2073.0
35.632722700,2203.0
35.649433969,2059.0
35.666145238,2187.0
35.682856507,2090.0
35.699567776,2168.0
35.716279045,2104.0
35.732990314,2158.0
35.749701583,2098.0
35.766412852,2126.0
35.783124121,2082.0
35.799835390,2098.0
35.816546659,2072.0
35.833257928,2224.0
35.849969197,2068.0
35.866680466,2114.0
35.883391735,2095.0
35.900103004,2084.0
35.916814273,2173.0
35.933525542,2064.0
35.950236811,2106.0
35.966948080,2080.0
35.983659349,2037.0
36.000370618,2022.0
36.017081887,2158.0
36.033793156,2084.0
36.050504424,2169.0
36.067215693,2019.0
36.083926962,2012.0
36.100638231,2140.0
36.117349500,2144.0
36.134060769,2100.0
36.150772038,2098.0
36.167483307,2079.0
36.184194576,2053.0
36.200905845,2073.0
36.217617114,2064.0
36.234328383,2071.0
36.251039652,2098.0
36.267750921,2170.0
36.284462190,2138.0
36.301173459,2010.0
36.317884728,2114.0
36.334595997,2115.0
36.351307266,2146.0
36.368018535,2161.0
36.384729804,2092.0
36.401441073,2208.0
36.418152342,2215.0
36.434863611,2134.0
36.451574880,2246.0
36.468286149,2109.0
36.484997418,2197.0
36.501708687,2197.0
36.518419956,2184.0
36.535131225,2156.0
36.551842494,2132.0
36.568553763,2191.0
36.585265032,2143.0
36.601976301,2120.0
36.618687570,2142.0
36.635398839,2140.0
36.652110108,2127.0
36.668821377,2110.0
36.685532646,2240.0
36.702243915,2188.0
36.718955184,2163.0
36.735666453,2206.0
36.752377722,2207.0
36.769088991,2166.0
36.785800260,2199.0
36.802511528,2181.0
36.819222797,2149.0
36.835934066,2319.0
36.852645335,2113.0
36.869356604,2210.0
36.886067873,2203.0
36.902779142,2217.0
36.919490411,2249.0
36.936201680,2123.0
36.952912949,2233.0
36.969624218,2244.0
36.986335487,2275.0
37.003046756,2229.0
37.019758025,2275.0
37.036469294,2236.0
37.053180563,2177.0
37.069891832,2212.0
37.086603101,2292.0
37.103314370,2269.0
37.120025639,2244.0
37.136736908,2221.0
37.153448177,2253.0
37.170159446,2242.0
37.186870715,2257.0
37.203581984,2260.0
37.220293253,2197.0
37.237004522,2210.0
37.253715791,2236.0
37.270427060,2207.0
37.287138329,2143.0
37.303849598,2190.0
37.320560867,2171.0
37.337272136,2156.0
37.353983405,2192.0
37.370694674,2177.0
37.387405943,2153.0
37.404117212,2213.0
37.420828481,2182.0
37.437539750,2207.0
37.454251019,2166.0
37.470962288,2077.0
37.487673557,2128.0
37.504384826,2057.0
37.521096095,2147.0
37.537807364,2137.0
37.554518633,2104.0
37.571229901,2085.0
37.587941170,2123.0
37.604652439,2067.0
37.621363708,2075.0
37.638074977,2107.0
37.654786246,2026.0
37.671497515,2070.0
37.688208784,2146.0
37.704920053,2054.0
37.721631322,2112.0
37.738342591,2062.0
37.755053860,2012.0
37.771765129,2160.0
37.788476398,2056.0
37.805187667,2111.0
37.821898936,2022.0
37.838610205,2104.0
37.855321474,2127.0
37.872032743,2120.0
37.888744012,2101.0
37.905455281,2042.0
37.922166550,1995.0
37.938877819,2142.0
37.955589088,2167.0
37.972300357,2047.0
37.989011626,2087.0
38.005722895,2129.0
38.022434164,2129.0
38.039145433,2116.0
38.055856702,2191.0
38.072567971,2124.0
38.089279240,2084.0
38.105990509,2061.0
38.122701778,2091.0
38.139413047,2136.0
38.156124316,2017.0
38.172835585,2112.0
38.189546854,2041.0
38.206258123,2053.0
38.222969392,2041.0
38.239680661,2133.0
38.256391930,2139.0
38.273103199,2071.0
38.289814468,2089.0
38.306525737,2137.0
38.323237005,2036.0
38.339948274,1891.0
38.356659543,2081.0
38.373370812,2097.0
38.390082081,1989.0
38.406793350,2064.0
38.423504619,2052.0
38.440215888,1981.0
38.456927157,2039.0
38.473638426,2014.0
38.490349695,2000.0
38.507060964,1969.0
38.523772233,1987.0
38.540483502,2033.0
38.557194771,1995.0
38.573906040,1963.0
38.590617309,1965.0
38.607328578,2053.0
38.624039847,2007.0
38.640751116,2031.0
38.657462385,2005.0
38.674173654,2000.0
38.690884923,2121.0
38.707596192,1990.0
38.724307461,2030.0
38.741018730,1994.0
38.757729999,2054.0
38.774441268,2016.0
38.791152537,2005.0
38.807863806,2025.0
38.824575075,1952.0
38.841286344,2024.0
38.857997613,2002.0
38.874708882,2045.0
38.891420151,1952.0
38.908131420,2013.0
38.924842689,2017.0
38.941553958,2023.0
38.958265227,2066.0
38.974976496,2037.0
38.991687765,2043.0
39.008399034,2079.0
39.025110303,2049.0
39.041821572,2015.0
39.058532841,2026.0
39.075244110,2089.0
39.091955378,2066.0
39.108666647,2067.0
39.125377916,1969.0
39.142089185,2009.0
39.158800454,2083.0
39.175511723,2044.0
39.192222992,2002.0
39.208934261,1973.0
39.225645530,2000.0
39.242356799,2011.0
39.259068068,2012.0
39.275779337,1984.0
39.292490606,1969.0
39.309201875,1937.0
39.325913144,1947.0
39.342624413,1969.0
39.359335682,2052.0
39.376046951,2002.0
39.392758220,2054.0
39.409469489,2035.0
39.426180758,2132.0
39.442892027,1964.0
39.459603296,2063.0
39.476314565,1962.0
39.493025834,2045.0
39.509737103,2067.0
39.526448372,2088.0
39.543159641,2065.0
39.559870910,2077.0
39.576582179,2018.0
39.593293448,2124.0
39.610004717,2079.0
39.626715986,2223.0
39.643427255,2138.0
39.660138524,2351.0
39.676849793,2370.0
39.693561062,2402.0
39.710272331,2398.0
39.726983600,2318.0
39.743694869,2189.0
39.760406138,2138.0
39.777117407,2161.0
39.793828676,2165.0
39.810539945,2207.0
39.827251214,2154.0
39.843962482,2060.0
39.860673751,2019.0
39.877385020,2102.0
39.894096289,1995.0
39.910807558,1943.0
39.927518827,2058.0
39.944230096,2169.0
39.960941365,2125.0
39.977652634,2131.0
39.994363903,2105.0
40.011075172,2158.0
40.027786441,2132.0
40.044497710,2078.0
40.061208979,2059.0
40.077920248,2071.0
40.094631517,2044.0
40.111342786,2064.0
40.128054055,2012.0
40.144765324,2094.0
40.161476593,2071.0
40.178187862,2008.0
40.194899131,2038.0
40.211610400,2077.0
40.228321669,1978.0
40.245032938,1994.0
40.261744207,1956.0
40.278455476,2011.0
40.295166745,1915.0
40.311878014,2022.0
40.328589283,2062.0
40.345300552,1942.0
40.362011821,1930.0
40.378723090,2046.0
40.395434359,1973.0
40.412145628,2067.0
40.428856897,1966.0
40.445568166,1936.0
40.462279435,1925.0
40.478990704,1990.0
40.495701973,1992.0
40.512413242,1883.0
40.529124511,2043.0
40.545835780,1990.0
40.562547049,1971.0
40.579258318,1959.0
40.595969587,1973.0
40.612680855,2011.0
40.629392124,1946.0
40.646103393,1934.0
40.662814662,1996.0
40.679525931,1943.0
40.696237200,1950.0
40.712948469,1842.0
40.729659738,2031.0
40.746371007,2022.0
40.763082276,1944.0
40.779793545,1992.0
40.796504814,2033.0
40.813216083,1956.0
40.829927352,2067.0
40.846638621,2055.0
40.863349890,1942.0
40.880061159,1954.0
40.896772428,2013.0
40.913483697,1922.0
40.930194966,1979.0
40.946906235,1965.0
40.963617504,1959.0
40.980328773,1979.0
40.997040042,1957.0
41.013751311,2049.0
41.030462580,1990.0
41.047173849,1932.0
41.063885118,1939.0
41.080596387,1933.0
41.097307656,2046.0
41.114018925,2031.0
41.130730194,2000.0
41.147441463,2047.0
41.164152732,1940.0
41.180864001,1970.0
41.197575270,2000.0
41.214286539,1994.0
41.230997808,1971.0
41.247709077,1925.0
41.264420346,2045.0
41.281131615,1987.0
41.297842884,1929.0
41.314554153,1982.0
41.331265422,1933.0
41.347976691,1975.0
41.364687959,2030.0
41.381399228,2021.0
41.398110497,1984.0
41.414821766,1933.0
41.431533035,2010.0
41.448244304,2022.0
41.464955573,1992.0
41.481666842,2011.0
41.498378111,1954.0
41.515089380,1959.0
41.531800649,1995.0
41.548511918,2003.0
41.565223187,2007.0
41.581934456,2094.0
41.598645725,1951.0
41.615356994,1970.0
41.632068263,1960.0
41.648779532,2084.0
41.665490801,2068.0
41.682202070,1909.0
41.698913339,1930.0
41.715624608,1981.0
41.732335877,2012.0
41.749047146,2049.0
41.765758415,1994.0
41.782469684,2001.0
41.799180953,2027.0
41.815892222,2001.0
41.832603491,1995.0
41.849314760,1932.0
41.866026029,1979.0
41.882737298,1964.0
41.899448567,1966.0
41.916159836,1959.0
41.932871105,2038.0
41.949582374,1972.0
41.966293643,1953.0
41.983004912,2038.0
41.999716181,1971.0
42.016427450,1979.0
42.033138719,1928.0
42.049849988,1991.0
42.066561257,2018.0
42.083272526,2026.0
42.099983795,2019.0
42.116695064,1989.0
42.133406332,2000.0
42.150117601,1953.0
42.166828870,2078.0
42.183540139,2074.0
42.200251408,2007.0
42.216962677,2035.0
42.233673946,1911.0
42.250385215,2084.0
42.267096484,2053.0
42.283807753,2070.0
42.300519022,2053.0
42.317230291,2135.0
42.333941560,2046.0
42.350652829,2012.0
42.367364098,2003.0
42.384075367,1976.0
42.400786636,2033.0
42.417497905,2038.0
42.434209174,2008.0
42.450920443,1978.0
42.467631712,2128.0
42.484342981,2051.0
42.501054250,2057.0
42.517765519,2076.0
42.534476788,2034.0
42.551188057,2158.0
42.567899326,2095.0
42.584610595,2135.0
42.601321864,2179.0
42.618033133,2146.0
42.634744402,2179.0
42.651455671,2109.0
42.668166940,2086.0
42.684878209,2116.0
42.701589478,2071.0
42.718300747,2182.0
42.735012016,2172.0
42.751723285,2210.0
42.768434554,2175.0
42.785145823,2151.0
42.801857092,2254.0
42.818568361,2197.0
42.835279630,2189.0
42.851990899,2204.0
42.868702168,2188.0
42.885413436,2230.0
42.902124705,2279.0
42.918835974,2301.0
42.935547243,2252.0
42.952258512,2190.0
42.968969781,2326.0
42.985681050,2239.0
43.002392319,2324.0
43.019103588,2294.0
43.035814857,2235.0
43.052526126,2282.0
43.069237395,2372.0
43.085948664,2338.0
43.102659933,2347.0
43.119371202,2263.0
43.136082471,2265.0
43.152793740,2370.0
43.169505009,2249.0
43.186216278,2256.0
43.202927547,2256.0
43.219638816,2337.0
43.236350085,2288.0
43.253061354,2315.0
43.269772623,2225.0
43.286483892,2379.0
43.303195161,2364.0
43.319906430,2317.0
43.336617699,2249.0
43.353328968,2309.0
43.370040237,2315.0
43.386751506,2340.0
43.403462775,2343.0
43.420174044,2281.0
43.436885313,2218.0
43.453596582,2307.0
43.470307851,2226.0
43.487019120,2267.0
43.503730389,2351.0
43.520441658,2322.0
43.537152927,2293.0
43.553864196,2257.0
43.570575465,2256.0
43.587286734,2277.0
43.603998003,2334.0
43.620709272,2405.0
43.637420541,2320.0
43.654131809,2362.0
43.670843078,2493.0
43.687554347,2475.0
43.704265616,2432.0
43.720976885,2515.0
43.737688154,2492.0
43.754399423,2553.0
43.771110692,2625.0
43.787821961,2774.0
43.804533230,2745.0
43.821244499,2833.0
43.837955768,3062.0
43.854667037,3109.0
43.871378306,3155.0
43.888089575,3294.0
43.904800844,3414.0
43.921512113,3587.0
43.938223382,3881.0
43.954934651,4135.0
43.971645920,4153.0
43.988357189,4530.0
44.005068458,4856.0
44.021779727,5143.0
44.038490996,5519.0
44.055202265,6061.0
44.071913534,6438.0
44.088624803,6911.0
44.105336072,7304.0
44.122047341,7785.0
44.138758610,8505.0
44.155469879,8747.0
44.172181148,9031.0
44.188892417,9607.0
44.205603686,9503.0
44.222314955,9675.0
44.239026224,9617.0
44.255737493,9202.0
44.272448762,8618.0
44.289160031,8330.0
44.305871300,7775.0
44.322582569,7126.0
44.339293838,6550.0
44.356005107,6123.0
44.372716376,5503.0
44.389427645,5044.0
44.406138913,4527.0
44.422850182,4147.0
44.439561451,3825.0
44.456272720,3426.0
44.472983989,3206.0
44.489695258,2933.0
44.506406527,2778.0
44.523117796,2629.0
44.539829065,2595.0
44.556540334,2605.0
44.573251603,2416.0
44.589962872,2414.0
44.606674141,2319.0
44.623385410,2292.0
44.640096679,2276.0
44.656807948,2221.0
44.673519217,2262.0
44.690230486,2264.0
44.706941755,2203.0
44.723653024,2105.0
44.740364293,2128.0
44.757075562,2147.0
44.773786831,2170.0
44.790498100,2128.0
44.807209369,2099.0
44.823920638,2139.0
44.840631907,2157.0
44.857343176,2061.0
44.874054445,2166.0
44.890765714,2086.0
44.907476983,2153.0
44.924188252,2064.0
44.940899521,2138.0
44.957610790,2106.0
44.974322059,2020.0
44.991033328,2100.0
45.007744597,1994.0
45.024455866,2004.0
45.041167135,1960.0
45.057878404,2052.0
45.074589673,2074.0
45.091300942,1979.0
45.108012211,2109.0
45.124723480,1991.0
45.141434749,2115.0
45.158146018,2049.0
45.174857286,2060.0
45.191568555,2111.0
45.208279824,2067.0
45.224991093,2132.0
45.241702362,2056.0
45.258413631,2133.0
45.275124900,2113.0
45.291836169,2186.0
45.308547438,2203.0
45.325258707,2167.0
45.341969976,2176.0
45.358681245,2053.0
45.375392514,2131.0
45.392103783,2132.0
45.408815052,2079.0
45.425526321,2056.0
45.442237590,2249.0
45.458948859,2102.0
45.475660128,2033.0
45.492371397,2127.0
45.509082666,1978.0
45.525793935,2026.0
45.542505204,2036.0
45.559216473,1984.0
45.575927742,1993.0
45.592639011,2055.0
45.609350280,2050.0
45.626061549,2060.0
45.642772818,2032.0
45.659484087,2074.0
45.676195356,2036.0
45.692906625,2076.0
45.709617894,2026.0
45.726329163,2047.0
45.743040432,2008.0
45.759751701,2019.0
45.776462970,1974.0
45.793174239,2091.0
45.809885508,2006.0
45.826596777,2056.0
45.843308046,2067.0
45.860019315,2053.0
45.876730584,2165.0
45.893441853,2102.0
45.910153122,2278.0
45.926864390,2239.0
45.943575659,2277.0
45.960286928,2347.0
45.976998197,2449.0
45.993709466,2611.0
46.010420735,2716.0
46.027132004,2846.0
46.043843273,2891.0
46.060554542,3252.0
46.077265811,3534.0
46.093977080,3772.0
46.110688349,4274.0
46.127399618,5147.0
46.144110887,7122.0
46.160822156,8454.0
46.177533425,6579.0
46.194244694,4466.0
46.210955963,3638.0
46.227667232,3449.0
46.244378501,3632.0
46.261089770,4350.0
46.277801039,5228.0
46.294512308,4763.0
46.311223577,3695.0
46.327934846,3062.0
46.344646115,2906.0
46.361357384,2780.0
46.378068653,2792.0
46.394779922,3025.0
46.411491191,3071.0
46.428202460,3213.0
46.444913729,3200.0
46.461624998,3401.0
46.478336267,3379.0
46.495047536,3534.0
46.511758805,3404.0
46.528470074,3283.0
46.545181343,3327.0
46.561892612,3330.0
46.578603881,3219.0
46.595315150,3082.0
46.612026419,3035.0
46.628737688,2949.0
46.645448957,2783.0
46.662160226,2591.0
46.678871495,2574.0
46.695582763,2356.0
46.712294032,2324.0
46.729005301,2326.0
46.745716570,2295.0
46.762427839,2053.0
46.779139108,2145.0
46.795850377,2039.0
46.812561646,2019.0
46.829272915,2010.0
46.845984184,2000.0
46.862695453,2001.0
46.879406722,1906.0
46.896117991,1969.0
46.912829260,1919.0
46.929540529,1911.0
46.946251798,1874.0
46.962963067,1870.0
46.979674336,1952.0
46.996385605,1908.0
47.013096874,1910.0
47.029808143,1890.0
47.046519412,1863.0
47.063230681,1918.0
47.079941950,1881.0
47.096653219,1922.0
47.113364488,1967.0
47.130075757,1945.0
47.146787026,1882.0
47.163498295,1985.0
47.180209564,1776.0
47.196920833,1892.0
47.213632102,1904.0
47.230343371,1934.0
47.247054640,1833.0
47.263765909,1888.0
47.280477178,1920.0
47.297188447,1866.0
47.313899716,1930.0
47.330610985,1891.0
47.347322254,1897.0
47.364033523,1844.0
47.380744792,1887.0
47.397456061,1934.0
47.414167330,1921.0
47.430878599,1791.0
47.447589867,1988.0
47.464301136,1932.0
47.481012405,1948.0
47.497723674,1900.0
47.514434943,1876.0
47.531146212,1871.0
47.547857481,1958.0
47.564568750,1869.0
47.581280019,1901.0
47.597991288,1851.0
47.614702557,1865.0
47.631413826,1903.0
47.648125095,1896.0
47.664836364,1860.0
47.681547633,1910.0
47.698258902,1933.0
47.714970171,1924.0
47.731681440,1843.0
47.748392709,1903.0
47.765103978,1923.0
47.781815247,1939.0
47.798526516,1867.0
47.815237785,1911.0
47.831949054,1946.0
47.848660323,1869.0
47.865371592,1938.0
47.882082861,1870.0
47.898794130,1881.0
47.915505399,1895.0
47.932216668,1868.0
47.948927937,1864.0
47.965639206,1931.0
47.982350475,1930.0
47.999061744,1884.0
48.015773013,1892.0
48.032484282,1807.0
48.049195551,1829.0
48.065906820,1871.0
48.082618089,1841.0
48.099329358,1857.0
48.116040627,1828.0
48.132751896,1872.0
48.149463165,1871.0
48.166174434,1874.0
48.182885703,1896.0
48.199596972,1786.0
48.216308240,1915.0
48.233019509,1918.0
48.249730778,1832.0
48.266442047,1830.0
48.283153316,1953.0
48.299864585,1798.0
48.316575854,1855.0
48.333287123,1839.0
48.349998392,1819.0
48.366709661,1865.0
48.383420930,1843.0
48.400132199,1909.0
48.416843468,1860.0
48.433554737,1851.0
48.450266006,1850.0
48.466977275,1815.0
48.483688544,1788.0
48.500399813,1872.0
48.517111082,1823.0
48.533822351,1814.0
48.550533620,1810.0
48.567244889,1835.0
48.583956158,1937.0
48.600667427,1858.0
48.617378696,1894.0
48.634089965,1871.0
48.650801234,1845.0
48.667512503,1876.0
48.684223772,1850.0
48.700935041,1875.0
48.717646310,1908.0
48.734357579,1842.0
48.751068848,1832.0
48.767780117,1775.0
48.784491386,1826.0
48.801202655,1802.0
48.817913924,1810.0
48.834625193,1868.0
48.851336462,1881.0
48.868047731,1868.0
48.884759000,1869.0
48.901470269,1807.0
48.918181538,1898.0
48.934892807,1885.0
48.951604076,1852.0
48.968315344,1826.0
48.985026613,1812.0
49.001737882,1826.0
49.018449151,1822.0
49.035160420,1743.0
49.051871689,1873.0
49.068582958,1829.0
49.085294227,1887.0
49.102005496,1915.0
49.118716765,1796.0
49.135428034,1862.0
49.152139303,1937.0
49.168850572,1869.0
49.185561841,1870.0
49.202273110,1911.0
49.218984379,1899.0
49.235695648,1904.0
49.252406917,1964.0
49.269118186,1869.0
49.285829455,1903.0
49.302540724,1841.0
49.319251993,1951.0
49.335963262,1931.0
49.352674531,1984.0
49.369385800,1857.0
49.386097069,2014.0
49.402808338,1987.0
49.419519607,2084.0
49.436230876,2036.0
49.452942145,2023.0
49.469653414,2016.0
49.486364683,1939.0
49.503075952,1967.0
49.519787221,2006.0
49.536498490,1948.0
49.553209759,1932.0
49.569921028,1942.0
49.586632297,1930.0
49.603343566,1972.0
49.620054835,1901.0
49.636766104,1921.0
49.653477373,1775.0
49.670188642,1862.0
49.686899911,1840.0
49.703611180,1901.0
49.720322449,1874.0
49.737033717,1841.0
49.753744986,1873.0
49.770456255,1742.0
49.787167524,1807.0
49.803878793,1847.0
49.820590062,1872.0
49.837301331,1848.0
49.854012600,1784.0
49.870723869,1851.0
49.887435138,1884.0
49.904146407,1839.0
49.920857676,1882.0
49.937568945,1810.0
49.954280214,1898.0
49.970991483,1866.0
49.987702752,1919.0
50.004414021,1827.0
50.021125290,1911.0
50.037836559,1906.0
50.054547828,1914.0
50.071259097,1847.0
50.087970366,1948.0
50.104681635,1911.0
50.121392904,1886.0
50.138104173,1943.0
50.154815442,2006.0
50.171526711,1967.0
50.188237980,1938.0
50.204949249,1937.0
50.221660518,2008.0
50.238371787,1997.0
50.255083056,2053.0
50.271794325,2032.0
50.288505594,2111.0
50.305216863,2114.0
50.321928132,2167.0
50.338639401,2214.0
50.355350670,2285.0
50.372061939,2274.0
50.388773208,2188.0
50.405484477,2150.0
50.422195746,2248.0
50.438907015,2218.0
50.455618284,2303.0
50.472329553,2212.0
50.489040821,2129.0
50.505752090,2092.0
50.522463359,2091.0
50.539174628,2119.0
50.555885897,2051.0
50.572597166,2073.0
50.589308435,2067.0
50.606019704,2104.0
50.622730973,1967.0
50.639442242,1892.0
50.656153511,1982.0
50.672864780,1917.0
50.689576049,1942.0
50.706287318,1945.0
50.722998587,1940.0
50.739709856,1905.0
50.756421125,1907.0
50.773132394,1926.0
50.789843663,1899.0
50.806554932,1963.0
50.823266201,1882.0
50.839977470,1936.0
50.856688739,1986.0
50.873400008,1859.0
50.890111277,1970.0
50.906822546,2005.0
50.923533815,2104.0
50.940245084,1997.0
50.956956353,1977.0
50.973667622,2039.0
50.990378891,2004.0
51.007090160,2043.0
51.023801429,2047.0
51.040512698,2066.0
51.057223967,2094.0
51.073935236,2106.0
51.090646505,2146.0
51.107357774,2193.0
51.124069043,2235.0
51.140780312,2251.0
51.157491581,2241.0
51.174202850,2199.0
51.190914119,2357.0
51.207625388,2437.0
51.224336657,2467.0
51.241047926,2648.0
51.257759194,2568.0
51.274470463,2858.0
51.291181732,2881.0
51.307893001,2927.0
51.324604270,3166.0
51.341315539,3293.0
51.358026808,3347.0
51.374738077,3464.0
51.391449346,3516.0
51.408160615,3843.0
51.424871884,4011.0
51.441583153,4005.0
51.458294422,4132.0
51.475005691,4180.0
51.491716960,4124.0
51.508428229,4103.0
51.525139498,4158.0
51.541850767,4201.0
51.558562036,4015.0
51.575273305,4011.0
51.591984574,3832.0
51.608695843,3683.0
51.625407112,3595.0
51.642118381,3395.0
51.658829650,3210.0
51.675540919,3151.0
51.692252188,3054.0
51.708963457,2914.0
51.725674726,2807.0
51.742385995,2732.0
51.759097264,2553.0
51.775808533,2519.0
51.792519802,2352.0
51.809231071,2297.0
51.825942340,2241.0
51.842653609,2252.0
51.859364878,2183.0
51.876076147,2157.0
51.892787416,2071.0
51.909498685,2034.0
51.926209954,2085.0
51.942921223,1970.0
51.959632492,2009.0
51.976343761,1834.0
51.993055030,1919.0
52.009766299,1914.0
52.026477567,1922.0
52.043188836,1901.0
52.059900105,1921.0
52.076611374,1875.0
52.093322643,1902.0
52.110033912,1817.0
52.126745181,1900.0
52.143456450,1907.0
52.160167719,1953.0
52.176878988,1903.0
52.193590257,1888.0
52.210301526,1895.0
52.227012795,1857.0
52.243724064,1894.0
52.260435333,1814.0
52.277146602,1842.0
52.293857871,1713.0
52.310569140,1881.0
52.327280409,1868.0
52.343991678,1772.0
52.360702947,1801.0
52.377414216,1798.0
52.394125485,1936.0
52.410836754,1790.0
52.427548023,1811.0
52.444259292,1817.0
52.460970561,1856.0
52.477681830,1841.0
52.494393099,1823.0
52.511104368,1783.0
52.527815637,1761.0
52.544526906,1799.0
52.561238175,1797.0
52.577949444,1824.0
52.594660713,1769.0
52.611371982,1764.0
52.628083251,1816.0
52.644794520,1764.0
52.661505789,1791.0
52.678217058,1882.0
52.694928327,1752.0
52.711639596,1737.0
52.728350865,1792.0
52.745062134,1857.0
52.761773403,1798.0
52.778484671,1734.0
52.795195940,1764.0
52.811907209,1760.0
52.828618478,1796.0
52.845329747,1863.0
52.862041016,1828.0
52.878752285,1815.0
52.895463554,1794.0
52.912174823,1769.0
52.928886092,1749.0
52.945597361,1830.0
52.962308630,1833.0
52.979019899,1797.0
52.995731168,1847.0
53.012442437,1754.0
53.029153706,1744.0
53.045864975,1803.0
53.062576244,1852.0
53.079287513,1804.0
53.095998782,1780.0
53.112710051,1826.0
53.129421320,1764.0
53.146132589,1850.0
53.162843858,1777.0
53.179555127,1801.0
53.196266396,1780.0
53.212977665,1729.0
53.229688934,1807.0
53.246400203,1803.0
53.263111472,1884.0
53.279822741,1816.0
53.296534010,1857.0
53.313245279,1786.0
53.329956548,1755.0
53.346667817,1755.0
53.363379086,1780.0
53.380090355,1852.0
53.396801624,1854.0
53.413512893,1779.0
53.430224162,1815.0
53.446935431,1838.0
53.463646700,1878.0
53.480357969,1830.0
53.497069238,1732.0
53.513780507,1770.0
53.530491776,1756.0
53.547203044,1762.0
53.563914313,1872.0
53.580625582,1756.0
53.597336851,1727.0
53.614048120,1757.0
53.630759389,1826.0
53.647470658,1818.0
53.664181927,1717.0
53.680893196,1777.0
53.697604465,1783.0
53.714315734,1751.0
53.731027003,1782.0
53.747738272,1765.0
53.764449541,1757.0
53.781160810,1832.0
53.797872079,1833.0
53.814583348,1900.0
53.831294617,1800.0
53.848005886,1816.0
53.864717155,1847.0
53.881428424,1738.0
53.898139693,1839.0
53.914850962,1770.0
53.931562231,1842.0
53.948273500,1806.0
53.964984769,1787.0
53.981696038,1819.0
53.998407307,1780.0
54.015118576,1826.0
54.031829845,1811.0
54.048541114,1700.0
54.065252383,1780.0
54.081963652,1815.0
54.098674921,1737.0
54.115386190,1809.0
54.132097459,1777.0
54.148808728,1778.0
54.165519997,1717.0
54.182231266,1735.0
54.198942535,1719.0
54.215653804,1833.0
54.232365073,1761.0
54.249076342,1766.0
54.265787611,1780.0
54.282498880,1761.0
54.299210148,1749.0
54.315921417,1771.0
54.332632686,1790.0
54.349343955,1806.0
54.366055224,1779.0
54.382766493,1756.0
54.399477762,1793.0
54.416189031,1748.0
54.432900300,1766.0
54.449611569,1718.0
54.466322838,1796.0
54.483034107,1825.0
54.499745376,1810.0
54.516456645,1761.0
54.533167914,1726.0
54.549879183,1779.0
54.566590452,1727.0
54.583301721,1847.0
54.600012990,1717.0
54.616724259,1794.0
54.633435528,1751.0
54.650146797,1773.0
54.666858066,1685.0
54.683569335,1725.0
54.700280604,1756.0
54.716991873,1768.0
54.733703142,1731.0
54.750414411,1775.0
54.767125680,1787.0
54.783836949,1627.0
54.800548218,1788.0
54.817259487,1785.0
54.833970756,1700.0
54.850682025,1779.0
54.867393294,1737.0
54.884104563,1790.0
54.900815832,1781.0
54.917527101,1749.0
54.934238370,1774.0
54.950949639,1777.0
54.967660908,1744.0
54.984372177,1735.0
55.001083446,1789.0
55.017794715,1791.0
55.034505984,1716.0
55.051217253,1738.0
55.067928521,1671.0
55.084639790,1746.0
55.101351059,1784.0
55.118062328,1826.0
55.134773597,1778.0
55.151484866,1738.0
55.168196135,1775.0
55.184907404,1755.0
55.201618673,1792.0
55.218329942,1809.0
55.235041211,1780.0
55.251752480,1760.0
55.268463749,1787.0
55.285175018,1743.0
55.301886287,1696.0
55.318597556,1798.0
55.335308825,1816.0
55.352020094,1781.0
55.368731363,1751.0
55.385442632,1783.0
55.402153901,1769.0
55.418865170,1724.0
55.435576439,1816.0
55.452287708,1766.0
55.468998977,1731.0
55.485710246,1767.0
55.502421515,1852.0
55.519132784,1815.0
55.535844053,1749.0
55.552555322,1716.0
55.569266591,1742.0
55.585977860,1797.0
55.602689129,1727.0
55.619400398,1815.0
55.636111667,1777.0
55.652822936,1682.0
55.669534205,1777.0
55.686245474,1810.0
55.702956743,1714.0
55.719668012,1750.0
55.736379281,1716.0
55.753090550,1753.0
55.769801819,1762.0
55.786513088,1762.0
55.803224357,1722.0
55.819935625,1828.0
55.836646894,1779.0
55.853358163,1757.0
55.870069432,1777.0
55.886780701,1717.0
55.903491970,1776.0
55.920203239,1840.0
55.936914508,1723.0
55.953625777,1777.0
55.970337046,1801.0
55.987048315,1777.0
56.003759584,1750.0
56.020470853,1757.0
56.037182122,1799.0
56.053893391,1738.0
56.070604660,1721.0
56.087315929,1724.0
56.104027198,1802.0
56.120738467,1759.0
56.137449736,1746.0
56.154161005,1884.0
56.170872274,1757.0
56.187583543,1787.0
56.204294812,1786.0
56.221006081,1814.0
56.237717350,1750.0
56.254428619,1834.0
56.271139888,1773.0
56.287851157,1723.0
56.304562426,1819.0
56.321273695,1804.0
56.337984964,1796.0
56.354696233,1779.0
56.371407502,1833.0
56.388118771,1793.0
56.404830040,1760.0
56.421541309,1813.0
56.438252578,1802.0
56.454963847,1712.0
56.471675116,1767.0
56.488386385,1700.0
56.505097654,1766.0
56.521808923,1759.0
56.538520192,1808.0
56.555231461,1856.0
56.571942730,1721.0
56.588653998,1740.0
56.605365267,1781.0
56.622076536,1831.0
56.638787805,1817.0
56.655499074,1747.0
56.672210343,1797.0
56.688921612,1789.0
56.705632881,1783.0
56.722344150,1773.0
56.739055419,1706.0
56.755766688,1821.0
56.772477957,1794.0
56.789189226,1667.0
56.805900495,1820.0
56.822611764,1825.0
56.839323033,1819.0
56.856034302,1788.0
56.872745571,1808.0
56.889456840,1735.0
56.906168109,1769.0
56.922879378,1766.0
56.939590647,1765.0
56.956301916,1870.0
56.973013185,1773.0
56.989724454,1747.0
57.006435723,1754.0
57.023146992,1761.0
57.039858261,1888.0
57.056569530,1750.0
57.073280799,1743.0
57.089992068,1814.0
57.106703337,1781.0
57.123414606,1784.0
57.140125875,1811.0
57.156837144,1778.0
57.173548413,1742.0
57.190259682,1784.0
57.206970951,1859.0
57.223682220,1816.0
57.240393489,1793.0
57.257104758,1797.0
57.273816027,1759.0
57.290527296,1811.0
57.307238565,1798.0
57.323949834,1850.0
57.340661102,1741.0
57.357372371,1704.0
57.374083640,1812.0
57.390794909,1835.0
57.407506178,1828.0
57.424217447,1763.0
57.440928716,1832.0
57.457639985,1773.0
57.474351254,1745.0
57.491062523,1814.0
57.507773792,1797.0
57.524485061,1747.0
57.541196330,1724.0
57.557907599,1796.0
57.574618868,1767.0
57.591330137,1823.0
57.608041406,1786.0
57.624752675,1828.0
57.641463944,1852.0
57.658175213,1801.0
57.674886482,1803.0
57.691597751,1771.0
57.708309020,1782.0
57.725020289,1747.0
57.741731558,1762.0
57.758442827,1816.0
57.775154096,1728.0
57.791865365,1774.0
57.808576634,1833.0
57.825287903,1771.0
57.841999172,1798.0
57.858710441,1828.0
57.875421710,1751.0
57.892132979,1911.0
57.908844248,1810.0
57.925555517,1764.0
57.942266786,1785.0
57.958978055,1662.0
57.975689324,1796.0
57.992400593,1826.0
58.009111862,1791.0
58.025823131,1805.0
58.042534400,1748.0
58.059245669,1767.0
58.075956938,1795.0
58.092668207,1756.0
58.109379475,1705.0
58.126090744,1739.0
58.142802013,1723.0
58.159513282,1732.0
58.176224551,1810.0
58.192935820,1750.0
58.209647089,1812.0
58.226358358,1772.0
58.243069627,1715.0
58.259780896,1746.0
58.276492165,1785.0
58.293203434,1778.0
58.309914703,1828.0
58.326625972,1758.0
58.343337241,1837.0
58.360048510,1732.0
58.376759779,1889.0
58.393471048,1666.0
58.410182317,1802.0
58.426893586,1786.0
58.443604855,1799.0
58.460316124,1723.0
58.477027393,1795.0
58.493738662,1769.0
58.510449931,1793.0
58.527161200,1733.0
58.543872469,1821.0
58.560583738,1746.0
58.577295007,1844.0
58.594006276,1793.0
58.610717545,1770.0
58.627428814,1764.0
58.644140083,1836.0
58.660851352,1758.0
58.677562621,1802.0
58.694273890,1772.0
58.710985159,1832.0
58.727696428,1826.0
58.744407697,1744.0
58.761118966,1759.0
58.777830235,1832.0
58.794541504,1799.0
58.811252773,1766.0
58.827964042,1729.0
58.844675311,1809.0
58.861386579,1793.0
58.878097848,1839.0
58.894809117,1715.0
58.911520386,1784.0
58.928231655,1778.0
58.944942924,1704.0
58.961654193,1836.0
58.978365462,1743.0
58.995076731,1774.0
59.011788000,1755.0
59.028499269,1826.0
59.045210538,1731.0
59.061921807,1707.0
59.078633076,1818.0
59.095344345,1695.0
59.112055614,1742.0
59.128766883,1860.0
59.145478152,1752.0
59.162189421,1758.0
59.178900690,1731.0
59.195611959,1796.0
59.212323228,1848.0
59.229034497,1860.0
59.245745766,1764.0
59.262457035,1834.0
59.279168304,1684.0
59.295879573,1795.0
59.312590842,1791.0
59.329302111,1751.0
59.346013380,1846.0
59.362724649,1661.0
59.379435918,1797.0
59.396147187,1824.0
59.412858456,1913.0
59.429569725,1791.0
59.446280994,1730.0
59.462992263,1861.0
59.479703532,1819.0
59.496414801,1793.0
59.513126070,1795.0
59.529837339,1871.0
59.546548608,1829.0
59.563259877,1746.0
59.579971146,1786.0
59.596682415,1742.0
59.613393684,1872.0
59.630104952,1840.0
59.646816221,1809.0
59.663527490,1788.0
59.680238759,1875.0
59.696950028,1780.0
59.713661297,1850.0
59.730372566,1751.0
59.747083835,1800.0
59.763795104,1799.0
59.780506373,1794.0
59.797217642,1847.0
59.813928911,1725.0
59.830640180,1801.0
59.847351449,1812.0
59.864062718,1833.0
59.880773987,1806.0
59.897485256,1784.0
59.914196525,1821.0
59.930907794,1810.0
59.947619063,1790.0
59.964330332,1783.0
59.981041601,1898.0
59.997752870,1899.0
60.014464139,1772.0
60.031175408,1732.0
60.047886677,1876.0
60.064597946,1796.0
60.081309215,1860.0
60.098020484,1871.0
60.114731753,1831.0
60.131443022,1856.0
60.148154291,1849.0
60.164865560,1840.0
60.181576829,1792.0
60.198288098,1846.0
60.214999367,1776.0
60.231710636,1873.0
60.248421905,1796.0
60.265133174,1858.0
60.281844443,1829.0
60.298555712,1833.0
60.315266981,1785.0
60.331978250,1818.0
60.348689519,1782.0
60.365400788,1807.0
60.382112056,1851.0
60.398823325,1789.0
60.415534594,1909.0
60.432245863,1883.0
60.448957132,1909.0
60.465668401,1821.0
60.482379670,1817.0
60.499090939,1833.0
60.515802208,1819.0
60.532513477,1818.0
60.549224746,1884.0
60.565936015,1764.0
60.582647284,1946.0
60.599358553,1752.0
60.616069822,1889.0
60.632781091,1877.0
60.649492360,1850.0
60.666203629,1864.0
60.682914898,1870.0
60.699626167,1872.0
60.716337436,1839.0
60.733048705,1876.0
60.749759974,1819.0
60.766471243,1880.0
60.783182512,1863.0
60.799893781,1918.0
60.816605050,1850.0
60.833316319,1819.0
60.850027588,1879.0
60.866738857,1889.0
60.883450126,1872.0
60.900161395,1858.0
60.916872664,1880.0
60.933583933,1886.0
60.950295202,1860.0
60.967006471,1865.0
60.983717740,1725.0
61.000429009,1830.0
61.017140278,1923.0
61.033851547,1901.0
61.050562816,1858.0
61.067274085,1868.0
61.083985354,1863.0
61.100696623,1845.0
61.117407892,1827.0
61.134119161,1846.0
61.150830429,1809.0
61.167541698,1846.0
61.184252967,1925.0
61.200964236,1895.0
61.217675505,1871.0
61.234386774,1891.0
61.251098043,1959.0
61.267809312,1842.0
61.284520581,1918.0
61.301231850,1825.0
61.317943119,1883.0
61.334654388,1823.0
61.351365657,1820.0
61.368076926,1905.0
61.384788195,1883.0
61.401499464,1835.0
61.418210733,1914.0
61.434922002,1858.0
61.451633271,1846.0
61.468344540,1870.0
61.485055809,1915.0
61.501767078,1982.0
61.518478347,1922.0
61.535189616,1946.0
61.551900885,1866.0
61.568612154,1855.0
61.585323423,1834.0
61.602034692,1787.0
61.618745961,1931.0
61.635457230,1912.0
61.652168499,1942.0
61.668879768,1830.0
61.685591037,2007.0
61.702302306,1940.0
61.719013575,1987.0
61.735724844,1872.0
61.752436113,1955.0
61.769147382,1981.0
61.785858651,1879.0
61.802569920,1954.0
61.819281189,1984.0
61.835992458,1926.0
61.852703727,1925.0
61.869414996,1933.0
61.886126265,1952.0
61.902837533,1908.0
61.919548802,1962.0
61.936260071,1887.0
61.952971340,1894.0
61.969682609,1937.0
61.986393878,2015.0
62.003105147,1974.0
62.019816416,1952.0
62.036527685,1935.0
62.053238954,1972.0
62.069950223,1996.0
62.086661492,1870.0
62.103372761,2054.0
62.120084030,1959.0
62.136795299,1947.0
62.153506568,1981.0
62.170217837,2032.0
62.186929106,2017.0
62.203640375,2014.0
62.220351644,2083.0
62.237062913,2038.0
62.253774182,1967.0
62.270485451,2030.0
62.287196720,2006.0
62.303907989,2094.0
62.320619258,2158.0
62.337330527,2072.0
62.354041796,2036.0
62.370753065,2045.0
62.387464334,2004.0
62.404175603,2051.0
62.420886872,1994.0
62.437598141,2139.0
62.454309410,1955.0
62.471020679,2019.0
62.487731948,1975.0
62.504443217,2072.0
62.521154486,2053.0
62.537865755,1983.0
62.554577024,1943.0
62.571288293,1924.0
62.587999562,2021.0
62.604710831,2029.0
62.621422100,1928.0
62.638133369,2105.0
62.654844638,2051.0
62.671555906,1971.0
62.688267175,2014.0
62.704978444,2059.0
62.721689713,2130.0
62.738400982,1985.0
62.755112251,2021.0
62.771823520,1981.0
62.788534789,2061.0
62.805246058,2065.0
62.821957327,1977.0
62.838668596,1977.0
62.855379865,2008.0
62.872091134,2081.0
62.888802403,2020.0
62.905513672,2009.0
62.922224941,2019.0
62.938936210,1917.0
62.955647479,2084.0
62.972358748,2066.0
62.989070017,2041.0
63.005781286,2027.0
63.022492555,2069.0
63.039203824,2007.0
63.055915093,2027.0
63.072626362,2038.0
63.089337631,2016.0
63.106048900,1971.0
63.122760169,2037.0
63.139471438,1999.0
63.156182707,1992.0
63.172893976,1991.0
63.189605245,2029.0
63.206316514,2050.0
63.223027783,2039.0
63.239739052,1985.0
63.256450321,1928.0
63.273161590,2026.0
63.289872859,2026.0
63.306584128,1997.0
63.323295397,1980.0
63.340006666,1992.0
63.356717935,2056.0
63.373429204,1931.0
63.390140473,2049.0
63.406851742,1966.0
63.423563010,1959.0
63.440274279,2072.0
63.456985548,2024.0
63.473696817,2082.0
63.490408086,1999.0
63.507119355,1954.0
63.523830624,1969.0
63.540541893,1992.0
63.557253162,2025.0
63.573964431,2110.0
63.590675700,1935.0
63.607386969,2053.0
63.624098238,1995.0
63.640809507,2106.0
63.657520776,1999.0
63.674232045,1978.0
63.690943314,2003.0
63.707654583,1972.0
63.724365852,2109.0
63.741077121,2033.0
63.757788390,2021.0
63.774499659,1994.0
63.791210928,2045.0
63.807922197,2094.0
63.824633466,2049.0
63.841344735,2084.0
63.858056004,2036.0
63.874767273,2018.0
63.891478542,1952.0
63.908189811,1933.0
63.924901080,2024.0
63.941612349,2047.0
63.958323618,2037.0
63.975034887,2100.0
63.991746156,2076.0
64.008457425,2016.0
64.025168694,2069.0
64.041879963,1993.0
64.058591232,2020.0
64.075302501,2103.0
64.092013770,2053.0
64.108725039,1971.0
64.125436308,2083.0
64.142147577,2060.0
64.158858846,2058.0
64.175570115,2042.0
64.192281383,2067.0
64.208992652,2033.0
64.225703921,2039.0
64.242415190,2032.0
64.259126459,2056.0
64.275837728,2060.0
64.292548997,2010.0
64.309260266,2022.0
64.325971535,2059.0
64.342682804,2007.0
64.359394073,2000.0
64.376105342,2030.0
64.392816611,2112.0
64.409527880,2129.0
64.426239149,2065.0
64.442950418,2032.0
64.459661687,2094.0
64.476372956,2075.0
64.493084225,2122.0
64.509795494,2077.0
64.526506763,2041.0
64.543218032,1998.0
64.559929301,2038.0
64.576640570,2086.0
64.593351839,2040.0
64.610063108,1983.0
64.626774377,2100.0
64.643485646,2068.0
64.660196915,2087.0
64.676908184,2063.0
64.693619453,2153.0
64.710330722,2034.0
64.727041991,2078.0
64.743753260,2068.0
64.760464529,2092.0
64.777175798,1964.0
64.793887067,2068.0
64.810598336,2091.0
64.827309605,2086.0
64.844020874,1974.0
64.860732143,2164.0
64.877443412,2064.0
64.894154681,2140.0
64.910865950,2104.0
64.927577219,2026.0
64.944288487,2123.0
64.960999756,2108.0
64.977711025,2049.0
64.994422294,2111.0
65.011133563,2046.0
65.027844832,2138.0
65.044556101,2154.0
65.061267370,2114.0
65.077978639,2112.0
65.094689908,2128.0
65.111401177,2169.0
65.128112446,2066.0
65.144823715,2113.0
65.161534984,2122.0
65.178246253,2185.0
65.194957522,2054.0
65.211668791,2091.0
65.228380060,2185.0
65.245091329,2105.0
65.261802598,2109.0
65.278513867,2189.0
65.295225136,2121.0
65.311936405,2189.0
65.328647674,2149.0
65.345358943,2173.0
65.362070212,2125.0
65.378781481,2113.0
65.395492750,2092.0
65.412204019,2175.0
65.428915288,2204.0
65.445626557,2056.0
65.462337826,2114.0
65.479049095,2122.0
65.495760364,2185.0
65.512471633,2199.0
65.529182902,2084.0
65.545894171,2076.0
65.562605440,2070.0
65.579316709,2058.0
65.596027978,2166.0
65.612739247,2098.0
65.629450516,1962.0
65.646161785,2047.0
65.662873054,2090.0
65.679584323,2122.0
65.696295592,2065.0
65.713006860,2131.0
65.729718129,2154.0
65.746429398,2051.0
65.763140667,2136.0
65.779851936,2130.0
65.796563205,2141.0
65.813274474,2165.0
65.829985743,2165.0
65.846697012,2101.0
65.863408281,2143.0
65.880119550,2018.0
65.896830819,2060.0
65.913542088,2124.0
65.930253357,2120.0
65.946964626,2134.0
65.963675895,2151.0
65.980387164,2155.0
65.997098433,2200.0
66.013809702,2134.0
66.030520971,2168.0
66.047232240,2108.0
66.063943509,2158.0
66.080654778,2131.0
66.097366047,2163.0
66.114077316,2071.0
66.130788585,2113.0
66.147499854,2168.0
66.164211123,2152.0
66.180922392,2173.0
66.197633661,2114.0
66.214344930,2147.0
66.231056199,2200.0
66.247767468,2146.0
66.264478737,2164.0
66.281190006,2129.0
66.297901275,2144.0
66.314612544,2114.0
66.331323813,2201.0
66.348035082,2001.0
66.364746351,2112.0
66.381457620,2136.0
66.398168889,2086.0
66.414880158,2160.0
66.431591427,2112.0
66.448302696,2193.0
66.465013964,2162.0
66.481725233,2171.0
66.498436502,2094.0
66.515147771,2082.0
66.531859040,2150.0
66.548570309,2204.0
66.565281578,2189.0
66.581992847,2202.0
66.598704116,2142.0
66.615415385,2128.0
66.632126654,2088.0
66.648837923,2180.0
66.665549192,2183.0
66.682260461,2275.0
66.698971730,2243.0
66.715682999,2128.0
66.732394268,2150.0
66.749105537,2137.0
66.765816806,2185.0
66.782528075,2150.0
66.799239344,2132.0
66.815950613,2145.0
66.832661882,2198.0
66.849373151,2104.0
66.866084420,2160.0
66.882795689,2084.0
66.899506958,2113.0
66.916218227,2151.0
66.932929496,2069.0
66.949640765,2180.0
66.966352034,2145.0
66.983063303,2137.0
66.999774572,2164.0
67.016485841,2204.0
67.033197110,2041.0
67.049908379,2190.0
67.066619648,2191.0
67.083330917,2214.0
67.100042186,2178.0
67.116753455,2204.0
67.133464724,2143.0
67.150175993,2222.0
67.166887262,2211.0
67.183598531,2179.0
67.200309800,2118.0
67.217021069,2176.0
67.233732337,2117.0
67.250443606,2173.0
67.267154875,2176.0
67.283866144,2157.0
67.300577413,2211.0
67.317288682,2153.0
67.333999951,2183.0
67.350711220,2205.0
67.367422489,2072.0
67.384133758,2174.0
67.400845027,2192.0
67.417556296,2159.0
67.434267565,2124.0
67.450978834,2131.0
67.467690103,2188.0
67.484401372,2215.0
67.501112641,2003.0
67.517823910,2133.0
67.534535179,2150.0
67.551246448,2156.0
67.567957717,2134.0
67.584668986,2053.0
67.601380255,2205.0
67.618091524,2164.0
67.634802793,2205.0
67.651514062,2138.0
67.668225331,2082.0
67.684936600,2216.0
67.701647869,2225.0
67.718359138,2187.0
67.735070407,2078.0
67.751781676,2212.0
67.768492945,2118.0
67.785204214,2204.0
67.801915483,2132.0
67.818626752,2220.0
67.835338021,2139.0
67.852049290,2245.0
67.868760559,2118.0
67.885471828,2174.0
67.902183097,2172.0
67.918894366,2179.0
67.935605635,2173.0
67.952316904,2165.0
67.969028173,2230.0
67.985739441,2153.0
68.002450710,2255.0
68.019161979,2102.0
68.035873248,2038.0
68.052584517,2118.0
68.069295786,2263.0
68.086007055,2071.0
68.102718324,2139.0
68.119429593,2174.0
68.136140862,2131.0
68.152852131,2175.0
68.169563400,2162.0
68.186274669,2207.0
68.202985938,2145.0
68.219697207,2135.0
68.236408476,2112.0
68.253119745,2181.0
68.269831014,2195.0
68.286542283,2149.0
68.303253552,2204.0
68.319964821,2185.0
68.336676090,2208.0
68.353387359,2151.0
68.370098628,2144.0
68.386809897,2143.0
68.403521166,2198.0
68.420232435,2162.0
68.436943704,2124.0
68.453654973,2171.0
68.470366242,2092.0
68.487077511,2138.0
68.503788780,2155.0
68.520500049,2082.0
68.537211318,2140.0
68.553922587,2178.0
68.570633856,2142.0
68.587345125,2085.0
68.604056394,2145.0
68.620767663,2176.0
68.637478932,2065.0
68.654190201,2106.0
68.670901470,2115.0
68.687612739,2079.0
68.704324008,2135.0
68.721035277,2138.0
68.737746546,2132.0
68.754457814,2115.0
68.771169083,2113.0
68.787880352,2112.0
68.804591621,2053.0
68.821302890,2088.0
68.838014159,2118.0
68.854725428,2113.0
68.871436697,2019.0
68.888147966,2170.0
68.904859235,2112.0
68.921570504,2129.0
68.938281773,2104.0
68.954993042,2143.0
68.971704311,2058.0
68.988415580,2126.0
69.005126849,2055.0
69.021838118,2193.0
69.038549387,2033.0
69.055260656,2162.0
69.071971925,2224.0
69.088683194,2134.0
69.105394463,2095.0
69.122105732,2163.0
69.138817001,2108.0
69.155528270,2125.0
69.172239539,2135.0
69.188950808,2250.0
69.205662077,2157.0
69.222373346,2149.0
69.239084615,2211.0
69.255795884,2086.0
69.272507153,2219.0
69.289218422,2136.0
69.305929691,2171.0
69.322640960,2208.0
69.339352229,2080.0
69.356063498,2127.0
69.372774767,2102.0
69.389486036,2058.0
69.406197305,2088.0
69.422908574,2207.0
69.439619843,2143.0
69.456331112,2140.0
69.473042381,2171.0
69.489753650,2119.0
69.506464919,2054.0
69.523176187,2193.0
69.539887456,2073.0
69.556598725,2107.0
69.573309994,2049.0
69.590021263,2171.0
69.606732532,2095.0
69.623443801,2232.0
69.640155070,2096.0
69.656866339,2098.0
69.673577608,2049.0
69.690288877,2136.0
69.707000146,2120.0
69.723711415,2165.0
69.740422684,2220.0
69.757133953,2109.0
69.773845222,1986.0
69.790556491,2053.0
69.807267760,2099.0
69.823979029,2177.0
69.840690298,2171.0
69.857401567,2062.0
69.874112836,2114.0
69.890824105,2149.0
69.907535374,2027.0
69.924246643,2127.0
69.940957912,2097.0
69.957669181,2024.0
69.974380450,2024.0
69.991091719,2118.0
70.007802988,2165.0
70.024514257,2102.0
70.041225526,2066.0
70.057936795,2119.0
70.074648064,2031.0
70.091359333,1968.0
70.108070602,2093.0
70.124781871,2103.0
70.141493140,2102.0
70.158204409,2132.0
70.174915678,2103.0
70.191626947,2059.0
70.208338216,2047.0
70.225049485,2148.0
70.241760754,2060.0
70.258472023,2094.0
70.275183291,2114.0
70.291894560,2035.0
70.308605829,2132.0
70.325317098,2065.0
70.342028367,2009.0
70.358739636,2042.0
70.375450905,1999.0
70.392162174,2117.0
70.408873443,2041.0
70.425584712,2116.0
70.442295981,2016.0
70.459007250,2069.0
70.475718519,2166.0
70.492429788,2140.0
70.509141057,2161.0
70.525852326,2029.0
70.542563595,2080.0
70.559274864,2168.0
70.575986133,2058.0
70.592697402,1960.0
70.609408671,2086.0
70.626119940,2089.0
70.642831209,2094.0
70.659542478,2132.0
70.676253747,2014.0
70.692965016,2078.0
70.709676285,2153.0
70.726387554,2032.0
70.743098823,1994.0
70.759810092,2095.0
70.776521361,2058.0
70.793232630,2015.0
70.809943899,2014.0
70.826655168,1953.0
70.843366437,2082.0
70.860077706,2017.0
70.876788975,2124.0
70.893500244,2032.0
70.910211513,2138.0
70.926922782,2017.0
70.943634051,2019.0
70.960345320,1982.0
70.977056589,2053.0
70.993767858,2101.0
71.010479127,1970.0
71.027190396,2095.0
71.043901664,2061.0
71.060612933,2023.0
71.077324202,1969.0
71.094035471,2097.0
71.110746740,2062.0
71.127458009,2042.0
71.144169278,2068.0
71.160880547,2150.0
71.177591816,2000.0
71.194303085,1981.0
71.211014354,2099.0
71.227725623,2097.0
71.244436892,2063.0
71.261148161,1996.0
71.277859430,1967.0
71.294570699,1958.0
71.311281968,2067.0
71.327993237,2040.0
71.344704506,2085.0
71.361415775,2006.0
71.378127044,2004.0
71.394838313,2014.0
71.411549582,2015.0
71.428260851,2038.0
71.444972120,2008.0
71.461683389,2046.0
71.478394658,1904.0
71.495105927,1991.0
71.511817196,1989.0
71.528528465,1979.0
71.545239734,1986.0
71.561951003,2064.0
71.578662272,1984.0
71.595373541,1990.0
71.612084810,2024.0
71.628796079,1999.0
71.645507348,2043.0
71.662218617,2031.0
71.678929886,2066.0
71.695641155,1938.0
71.712352424,2036.0
71.729063693,2049.0
71.745774962,1992.0
71.762486231,2000.0
71.779197500,2059.0
71.795908768,1941.0
71.812620037,1943.0
71.829331306,1928.0
71.846042575,1998.0
71.862753844,1996.0
71.879465113,1990.0
71.896176382,2011.0
71.912887651,1970.0
71.929598920,1957.0
71.946310189,2101.0
71.963021458,1925.0
71.979732727,1986.0
71.996443996,1998.0
72.013155265,2021.0
72.029866534,1972.0
72.046577803,1956.0
72.063289072,1977.0
72.080000341,1969.0
72.096711610,1876.0
72.113422879,1958.0
72.130134148,1894.0
72.146845417,1991.0
72.163556686,1978.0
72.180267955,1923.0
72.196979224,1961.0
72.213690493,1899.0
72.230401762,1922.0
72.247113031,1965.0
72.263824300,1999.0
72.280535569,1991.0
72.297246838,1967.0
72.313958107,1896.0
72.330669376,1896.0
72.347380645,1886.0
72.364091914,1940.0
72.380803183,2044.0
72.397514452,2076.0
72.414225721,1867.0
72.430936990,1916.0
72.447648259,1940.0
72.464359528,1984.0
72.481070797,2008.0
72.497782066,2017.0
72.514493335,1898.0
72.531204604,1935.0
72.547915873,1900.0
72.564627141,1951.0
72.581338410,1903.0
72.598049679,1996.0
72.614760948,1933.0
72.631472217,1976.0
72.648183486,1942.0
72.664894755,1880.0
72.681606024,2003.0
72.698317293,1998.0
72.715028562,2008.0
72.731739831,1888.0
72.748451100,1933.0
72.765162369,2060.0
72.781873638,1956.0
72.798584907,1965.0
72.815296176,1922.0
72.832007445,1963.0
72.848718714,1981.0
72.865429983,1936.0
72.882141252,1880.0
72.898852521,2062.0
72.915563790,1918.0
72.932275059,1974.0
72.948986328,1966.0
72.965697597,1926.0
72.982408866,2008.0
72.999120135,1929.0
73.015831404,1972.0
73.032542673,1934.0
73.049253942,1928.0
73.065965211,1948.0
73.082676480,1964.0
73.099387749,1971.0
73.116099018,1908.0
73.132810287,1958.0
73.149521556,1937.0
73.166232825,1903.0
73.182944094,1882.0
73.199655363,1924.0
73.216366632,1969.0
73.233077901,1933.0
73.249789170,1904.0
73.266500439,1937.0
73.283211708,1896.0
73.299922977,1850.0
73.316634245,1886.0
73.333345514,1969.0
73.350056783,1845.0
73.366768052,1902.0
73.383479321,1988.0
73.400190590,1943.0
73.416901859,1957.0
73.433613128,1819.0
73.450324397,1944.0
73.467035666,1890.0
73.483746935,1883.0
73.500458204,1926.0
73.517169473,1873.0
73.533880742,1873.0
73.550592011,1791.0
73.567303280,1905.0
73.584014549,1854.0
73.600725818,1971.0
73.617437087,1929.0
73.634148356,1788.0
73.650859625,1818.0
73.667570894,1856.0
73.684282163,1855.0
73.700993432,1925.0
73.717704701,1795.0
73.734415970,1855.0
73.751127239,1897.0
73.767838508,2003.0
73.784549777,1861.0
73.801261046,1909.0
73.817972315,1874.0
73.834683584,1834.0
73.851394853,1871.0
73.868106122,1878.0
73.884817391,1788.0
73.901528660,1889.0
73.918239929,1885.0
73.934951198,1874.0
73.951662467,1863.0
73.968373736,1836.0
73.985085005,1838.0
74.001796274,1905.0
74.018507543,1817.0
74.035218812,1911.0
74.051930081,1906.0
74.068641350,1857.0
74.085352618,1862.0
74.102063887,1891.0
74.118775156,1836.0
74.135486425,1905.0
74.152197694,1920.0
74.168908963,1892.0
74.185620232,1827.0
74.202331501,1922.0
74.219042770,1879.0
74.235754039,1810.0
74.252465308,1912.0
74.269176577,1850.0
74.285887846,1904.0
74.302599115,1887.0
74.319310384,1779.0
74.336021653,1856.0
74.352732922,1847.0
74.369444191,1878.0
74.386155460,1861.0
74.402866729,1878.0
74.419577998,1945.0
74.436289267,1840.0
74.453000536,1849.0
74.469711805,1885.0
74.486423074,1867.0
74.503134343,1916.0
74.519845612,1883.0
74.536556881,1860.0
74.553268150,1902.0
74.569979419,1848.0
74.586690688,1852.0
74.603401957,1791.0
74.620113226,1860.0
74.636824495,1799.0
74.653535764,1861.0
74.670247033,1807.0
74.686958302,1860.0
74.703669571,1781.0
74.720380840,1828.0
74.737092109,1902.0
74.753803378,1878.0
74.770514647,1886.0
74.787225916,1860.0
74.803937185,1926.0
74.820648454,1827.0
74.837359722,1844.0
74.854070991,1852.0
74.870782260,1848.0
74.887493529,1794.0
74.904204798,1857.0
74.920916067,1814.0
74.937627336,1880.0
74.954338605,1896.0
74.971049874,1903.0
74.987761143,1838.0
75.004472412,1824.0
75.021183681,1895.0
75.037894950,1928.0
75.054606219,1966.0
75.071317488,1895.0
75.088028757,1935.0
75.104740026,1915.0
75.121451295,1908.0
75.138162564,1883.0
75.154873833,1948.0
75.171585102,1921.0
75.188296371,1874.0
75.205007640,1924.0
75.221718909,1941.0
75.238430178,1886.0
75.255141447,1869.0
75.271852716,1908.0
75.288563985,1905.0
75.305275254,1926.0
75.321986523,1908.0
75.338697792,1942.0
75.355409061,1916.0
75.372120330,1950.0
75.388831599,2005.0
75.405542868,1904.0
75.422254137,2028.0
75.438965406,1960.0
75.455676675,1991.0
75.472387944,1975.0
75.489099213,2052.0
75.505810482,2012.0
75.522521751,2000.0
75.539233020,2098.0
75.555944289,2029.0
75.572655558,2026.0
75.589366827,2151.0
75.606078095,2134.0
75.622789364,2106.0
75.639500633,2141.0
75.656211902,2271.0
75.672923171,2279.0
75.689634440,2211.0
75.706345709,2259.0
75.723056978,2306.0
75.739768247,2349.0
75.756479516,2407.0
75.773190785,2470.0
75.789902054,2418.0
75.806613323,2346.0
75.823324592,2233.0
75.840035861,2342.0
75.856747130,2346.0
75.873458399,2276.0
75.890169668,2449.0
75.906880937,2213.0
75.923592206,2237.0
75.940303475,2142.0
75.957014744,2311.0
75.973726013,2195.0
75.990437282,2184.0
76.007148551,2220.0
76.023859820,2152.0
76.040571089,2059.0
76.057282358,2156.0
76.073993627,2025.0
76.090704896,2102.0
76.107416165,1962.0
76.124127434,2070.0
76.140838703,1972.0
76.157549972,1925.0
76.174261241,1899.0
76.190972510,1861.0
76.207683779,1867.0
76.224395048,1927.0
76.241106317,1781.0
76.257817586,1838.0
76.274528855,1830.0
76.291240124,1824.0
76.307951393,1867.0
76.324662662,1805.0
76.341373931,1811.0
76.358085199,1827.0
76.374796468,1732.0
76.391507737,1779.0
76.408219006,1782.0
76.424930275,1695.0
76.441641544,1729.0
76.458352813,1783.0
76.475064082,1744.0
76.491775351,1658.0
76.508486620,1760.0
76.525197889,1787.0
76.541909158,1765.0
76.558620427,1732.0
76.575331696,1695.0
76.592042965,1732.0
76.608754234,1650.0
76.625465503,1710.0
76.642176772,1768.0
76.658888041,1727.0
76.675599310,1689.0
76.692310579,1718.0
76.709021848,1722.0
76.725733117,1699.0
76.742444386,1715.0
76.759155655,1693.0
76.775866924,1735.0
76.792578193,1763.0
76.809289462,1694.0
76.826000731,1675.0
76.842712000,1710.0
76.859423269,1701.0
76.876134538,1712.0
76.892845807,1724.0
76.909557076,1636.0
76.926268345,1743.0
76.942979614,1668.0
76.959690883,1759.0
76.976402152,1647.0
76.993113421,1665.0
77.009824690,1699.0
77.026535959,1710.0
77.043247228,1765.0
77.059958497,1664.0
77.076669766,1673.0
77.093381035,1664.0
77.110092304,1645.0
77.126803572,1660.0
77.143514841,1663.0
77.160226110,1638.0
77.176937379,1657.0
77.193648648,1691.0
77.210359917,1681.0
77.227071186,1691.0
77.243782455,1701.0
77.260493724,1700.0
77.277204993,1696.0
77.293916262,1718.0
77.310627531,1652.0
77.327338800,1654.0
77.344050069,1676.0
77.360761338,1703.0
77.377472607,1634.0
77.394183876,1699.0
77.410895145,1671.0
77.427606414,1638.0
77.444317683,1655.0
77.461028952,1690.0
77.477740221,1585.0
77.494451490,1666.0
77.511162759,1668.0
77.527874028,1650.0
77.544585297,1703.0
77.561296566,1741.0
77.578007835,1642.0
77.594719104,1652.0
77.611430373,1663.0
77.628141642,1709.0
77.644852911,1676.0
77.661564180,1650.0
77.678275449,1596.0
77.694986718,1661.0
77.711697987,1626.0
77.728409256,1622.0
77.745120525,1608.0
77.761831794,1652.0
77.778543063,1645.0
77.795254332,1615.0
77.811965601,1628.0
77.828676870,1646.0
77.845388139,1689.0
77.862099408,1676.0
77.878810676,1586.0
77.895521945,1659.0
77.912233214,1589.0
77.928944483,1586.0
77.945655752,1665.0
77.962367021,1654.0
77.979078290,1633.0
77.995789559,1697.0
78.012500828,1690.0
78.029212097,1612.0
78.045923366,1694.0
78.062634635,1658.0
78.079345904,1632.0
78.096057173,1650.0
78.112768442,1632.0
78.129479711,1628.0
78.146190980,1623.0
78.162902249,1691.0
78.179613518,1657.0
78.196324787,1644.0
78.213036056,1668.0
78.229747325,1749.0
78.246458594,1536.0
78.263169863,1598.0
78.279881132,1599.0
78.296592401,1634.0
78.313303670,1525.0
78.330014939,1593.0
78.346726208,1562.0
78.363437477,1662.0
78.380148746,1697.0
78.396860015,1593.0
78.413571284,1590.0
78.430282553,1693.0
78.446993822,1643.0
78.463705091,1686.0
78.480416360,1645.0
78.497127629,1656.0
78.513838898,1659.0
78.530550167,1603.0
78.547261436,1599.0
78.563972705,1651.0
78.580683974,1591.0
78.597395243,1669.0
78.614106512,1550.0
78.630817781,1596.0
78.647529049,1573.0
78.664240318,1567.0
78.680951587,1669.0
78.697662856,1594.0
78.714374125,1658.0
78.731085394,1634.0
78.747796663,1670.0
78.764507932,1617.0
78.781219201,1607.0
78.797930470,1645.0
78.814641739,1612.0
78.831353008,1675.0
78.848064277,1598.0
78.864775546,1582.0
78.881486815,1721.0
78.898198084,1581.0
78.914909353,1726.0
78.931620622,1611.0
78.948331891,1629.0
78.965043160,1650.0
78.981754429,1700.0
78.998465698,1630.0
79.015176967,1490.0
79.031888236,1583.0
79.048599505,1589.0
79.065310774,1578.0
79.082022043,1642.0
79.098733312,1591.0
79.115444581,1633.0
79.132155850,1599.0
79.148867119,1551.0
79.165578388,1657.0
79.182289657,1611.0
79.199000926,1599.0
79.215712195,1613.0
79.232423464,1669.0
79.249134733,1614.0
79.265846002,1602.0
79.282557271,1635.0
79.299268540,1617.0
79.315979809,1643.0
79.332691078,1553.0
79.349402347,1562.0
79.366113616,1596.0
79.382824885,1698.0
79.399536153,1567.0
79.416247422,1558.0
79.432958691,1638.0
79.449669960,1634.0
79.466381229,1567.0
79.483092498,1617.0
79.499803767,1608.0
79.516515036,1580.0
79.533226305,1604.0
79.549937574,1560.0
79.566648843,1591.0
79.583360112,1542.0
79.600071381,1587.0
79.616782650,1544.0
79.633493919,1598.0
79.650205188,1571.0
79.666916457,1593.0
79.683627726,1597.0
79.700338995,1517.0
79.717050264,1611.0
79.733761533,1552.0
79.750472802,1603.0
79.767184071,1523.0
79.783895340,1615.0
79.800606609,1623.0
79.817317878,1543.0
79.834029147,1544.0
79.850740416,1606.0
79.867451685,1563.0
79.884162954,1532.0
79.900874223,1559.0
79.917585492,1567.0
79.934296761,1543.0
79.951008030,1564.0
79.967719299,1584.0
79.984430568,1540.0
80.001141837,1547.0
80.017853106,1590.0
80.034564375,1634.0
80.051275644,1502.0
80.067986913,1608.0
80.084698182,1508.0
80.101409451,1478.0
80.118120720,1593.0
80.134831989,1500.0
80.151543258,1581.0
80.168254526,1580.0
80.184965795,1518.0
80.201677064,1573.0
80.218388333,1532.0
80.235099602,1556.0
80.251810871,1590.0
80.268522140,1584.0
80.285233409,1502.0
80.301944678,1493.0
80.318655947,1521.0
80.335367216,1556.0
80.352078485,1583.0
80.368789754,1481.0
80.385501023,1542.0
80.402212292,1559.0
80.418923561,1547.0
80.435634830,1554.0
80.452346099,1466.0
80.469057368,1619.0
80.485768637,1516.0
80.502479906,1564.0
80.519191175,1526.0
80.535902444,1555.0
80.552613713,1482.0
80.569324982,1555.0
80.586036251,1483.0
80.602747520,1569.0
80.619458789,1551.0
80.636170058,1491.0
80.652881327,1472.0
80.669592596,1598.0
80.686303865,1535.0
80.703015134,1568.0
80.719726403,1499.0
80.736437672,1527.0
80.753148941,1552.0
80.769860210,1514.0
80.786571479,1573.0
80.803282748,1607.0
80.819994017,1548.0
80.836705286,1500.0
80.853416555,1593.0
80.870127824,1503.0
80.886839093,1553.0
80.903550362,1538.0
80.920261630,1488.0
80.936972899,1629.0
80.953684168,1537.0
80.970395437,1558.0
80.987106706,1573.0
81.003817975,1535.0
81.020529244,1538.0
81.037240513,1488.0
81.053951782,1498.0
81.070663051,1554.0
81.087374320,1516.0
81.104085589,1512.0
81.120796858,1588.0
81.137508127,1561.0
81.154219396,1537.0
81.170930665,1495.0
81.187641934,1459.0
81.204353203,1601.0
81.221064472,1499.0
81.237775741,1515.0
81.254487010,1499.0
81.271198279,1498.0
81.287909548,1558.0
81.304620817,1485.0
81.321332086,1535.0
81.338043355,1428.0
81.354754624,1521.0
81.371465893,1502.0
81.388177162,1498.0
81.404888431,1514.0
81.421599700,1555.0
81.438310969,1531.0
81.455022238,1499.0
81.471733507,1464.0
81.488444776,1450.0
81.505156045,1537.0
81.521867314,1498.0
81.538578583,1544.0
81.555289852,1457.0
81.572001121,1452.0
81.588712390,1531.0
81.605423659,1558.0
81.622134928,1387.0
81.638846197,1506.0
81.655557466,1584.0
81.672268735,1520.0
81.688980003,1542.0
81.705691272,1494.0
81.722402541,1493.0
81.739113810,1477.0
81.755825079,1508.0
81.772536348,1445.0
81.789247617,1568.0
81.805958886,1524.0
81.822670155,1440.0
81.839381424,1449.0
81.856092693,1502.0
81.872803962,1544.0
81.889515231,1458.0
81.906226500,1526.0
81.922937769,1457.0
81.939649038,1505.0
81.956360307,1535.0
81.973071576,1512.0
81.989782845,1473.0
82.006494114,1490.0
82.023205383,1476.0
82.039916652,1429.0
82.056627921,1465.0
82.073339190,1547.0
82.090050459,1478.0
82.106761728,1512.0
82.123472997,1447.0
82.140184266,1479.0
82.156895535,1475.0
82.173606804,1509.0
82.190318073,1480.0
82.207029342,1552.0
82.223740611,1462.0
82.240451880,1537.0
82.257163149,1436.0
82.273874418,1508.0
82.290585687,1444.0
82.307296956,1547.0
82.324008225,1475.0
82.340719494,1408.0
82.357430763,1480.0
82.374142032,1451.0
82.390853301,1504.0
82.407564570,1504.0
82.424275839,1516.0
82.440987107,1486.0
82.457698376,1465.0
82.474409645,1490.0
82.491120914,1416.0
82.507832183,1523.0
82.524543452,1465.0
82.541254721,1395.0
82.557965990,1438.0
82.574677259,1470.0
82.591388528,1434.0
82.608099797,1490.0
82.624811066,1481.0
82.641522335,1527.0
82.658233604,1479.0
82.674944873,1562.0
82.691656142,1455.0
82.708367411,1487.0
82.725078680,1428.0
82.741789949,1486.0
82.758501218,1430.0
82.775212487,1471.0
82.791923756,1486.0
82.808635025,1544.0
82.825346294,1434.0
82.842057563,1511.0
82.858768832,1431.0
82.875480101,1439.0
82.892191370,1409.0
82.908902639,1459.0
82.925613908,1474.0
82.942325177,1494.0
82.959036446,1401.0
82.975747715,1483.0
82.992458984,1558.0
83.009170253,1519.0
83.025881522,1549.0
83.042592791,1626.0
83.059304060,1466.0
83.076015329,1433.0
83.092726598,1485.0
83.109437867,1476.0
83.126149136,1509.0
83.142860405,1458.0
83.159571674,1498.0
83.176282943,1487.0
83.192994212,1476.0
83.209705480,1521.0
83.226416749,1401.0
83.243128018,1521.0
83.259839287,1458.0
83.276550556,1426.0
83.293261825,1475.0
83.309973094,1450.0
83.326684363,1419.0
83.343395632,1466.0
83.360106901,1487.0
83.376818170,1493.0
83.393529439,1505.0
83.410240708,1460.0
83.426951977,1379.0
83.443663246,1441.0
83.460374515,1426.0
83.477085784,1472.0
83.493797053,1452.0
83.510508322,1496.0
83.527219591,1466.0
83.543930860,1495.0
83.560642129,1431.0
83.577353398,1398.0
83.594064667,1464.0
83.610775936,1569.0
83.627487205,1427.0
83.644198474,1457.0
83.660909743,1442.0
83.677621012,1521.0
83.694332281,1459.0
83.711043550,1447.0
83.727754819,1475.0
83.744466088,1387.0
83.761177357,1433.0
83.777888626,1398.0
83.794599895,1457.0
83.811311164,1431.0
83.828022433,1429.0
83.844733702,1464.0
83.861444971,1417.0
83.878156240,1435.0
83.894867509,1473.0
83.911578778,1482.0
83.928290047,1423.0
83.945001316,1459.0
83.961712584,1429.0
83.978423853,1423.0
83.995135122,1448.0
84.011846391,1477.0
84.028557660,1481.0
84.045268929,1442.0
84.061980198,1389.0
84.078691467,1443.0
84.095402736,1389.0
84.112114005,1489.0
84.128825274,1451.0
84.145536543,1416.0
84.162247812,1433.0
84.178959081,1463.0
84.195670350,1446.0
84.212381619,1450.0
84.229092888,1412.0
84.245804157,1484.0
84.262515426,1427.0
84.279226695,1434.0
84.295937964,1460.0
84.312649233,1413.0
84.329360502,1334.0
84.346071771,1352.0
84.362783040,1444.0
84.379494309,1397.0
84.396205578,1477.0
84.412916847,1480.0
84.429628116,1442.0
84.446339385,1384.0
84.463050654,1441.0
84.479761923,1464.0
84.496473192,1461.0
84.513184461,1400.0
84.529895730,1398.0
84.546606999,1457.0
84.563318268,1410.0
84.580029537,1435.0
84.596740806,1387.0
84.613452075,1453.0
84.630163344,1409.0
84.646874613,1405.0
84.663585882,1436.0
84.680297151,1441.0
84.697008420,1487.0
84.713719689,1406.0
84.730430957,1437.0
84.747142226,1405.0
84.763853495,1451.0
84.780564764,1419.0
84.797276033,1420.0
84.813987302,1483.0
84.830698571,1428.0
84.847409840,1422.0
84.864121109,1430.0
84.880832378,1392.0
84.897543647,1363.0
84.914254916,1536.0
84.930966185,1441.0
84.947677454,1472.0
84.964388723,1462.0
84.981099992,1411.0
84.997811261,1464.0
85.014522530,1415.0
85.031233799,1439.0
85.047945068,1451.0
85.064656337,1432.0
85.081367606,1449.0
85.098078875,1472.0
85.114790144,1408.0
85.131501413,1442.0
85.148212682,1409.0
85.164923951,1437.0
85.181635220,1471.0
85.198346489,1374.0
85.215057758,1407.0
85.231769027,1458.0
85.248480296,1361.0
85.265191565,1399.0
85.281902834,1463.0
85.298614103,1500.0
85.315325372,1433.0
85.332036641,1410.0
85.348747910,1396.0
85.365459179,1410.0
85.382170448,1290.0
85.398881717,1362.0
85.415592986,1415.0
85.432304255,1421.0
85.449015524,1435.0
85.465726793,1452.0
85.482438061,1469.0
85.499149330,1433.0
85.515860599,1454.0
85.532571868,1400.0
85.549283137,1390.0
85.565994406,1439.0
85.582705675,1508.0
85.599416944,1488.0
85.616128213,1445.0
85.632839482,1422.0
85.649550751,1430.0
85.666262020,1382.0
85.682973289,1340.0
85.699684558,1455.0
85.716395827,1382.0
85.733107096,1361.0
85.749818365,1393.0
85.766529634,1424.0
85.783240903,1368.0
85.799952172,1468.0
85.816663441,1476.0
85.833374710,1428.0
85.850085979,1412.0
85.866797248,1372.0
85.883508517,1430.0
85.900219786,1453.0
85.916931055,1387.0
85.933642324,1444.0
85.950353593,1361.0
85.967064862,1435.0
85.983776131,1480.0
86.000487400,1387.0
86.017198669,1449.0
86.033909938,1356.0
86.050621207,1394.0
86.067332476,1442.0
86.084043745,1379.0
86.100755014,1416.0
86.117466283,1390.0
86.134177552,1486.0
86.150888821,1442.0
86.167600090,1414.0
86.184311359,1392.0
86.201022628,1376.0
86.217733897,1395.0
86.234445166,1423.0
86.251156434,1376.0
86.267867703,1433.0
86.284578972,1465.0
86.301290241,1479.0
86.318001510,1474.0
86.334712779,1377.0
86.351424048,1378.0
86.368135317,1415.0
86.384846586,1351.0
86.401557855,1396.0
86.418269124,1445.0
86.434980393,1421.0
86.451691662,1449.0
86.468402931,1497.0
86.485114200,1450.0
86.501825469,1437.0
86.518536738,1382.0
86.535248007,1396.0
86.551959276,1354.0
86.568670545,1343.0
86.585381814,1445.0
86.602093083,1427.0
86.618804352,1477.0
86.635515621,1376.0
86.652226890,1456.0
86.668938159,1428.0
86.685649428,1388.0
86.702360697,1419.0
86.719071966,1395.0
86.735783235,1398.0
86.752494504,1423.0
86.769205773,1354.0
86.785917042,1425.0
86.802628311,1371.0
86.819339580,1438.0
86.836050849,1399.0
86.852762118,1372.0
86.869473387,1351.0
86.886184656,1405.0
86.902895925,1421.0
86.919607194,1309.0
86.936318463,1334.0
86.953029732,1411.0
86.969741001,1401.0
86.986452270,1365.0
87.003163539,1393.0
87.019874807,1411.0
87.036586076,1407.0
87.053297345,1382.0
87.070008614,1416.0
87.086719883,1405.0
87.103431152,1375.0
87.120142421,1381.0
87.136853690,1342.0
87.153564959,1370.0
87.170276228,1375.0
87.186987497,1352.0
87.203698766,1432.0
87.220410035,1428.0
87.237121304,1442.0
87.253832573,1367.0
87.270543842,1402.0
87.287255111,1416.0
87.303966380,1459.0
87.320677649,1409.0
87.337388918,1377.0
87.354100187,1423.0
87.370811456,1451.0
87.387522725,1433.0
87.404233994,1441.0
87.420945263,1369.0
87.437656532,1397.0
87.454367801,1458.0
87.471079070,1438.0
87.487790339,1386.0
87.504501608,1396.0
87.521212877,1362.0
87.537924146,1408.0
87.554635415,1426.0
87.571346684,1364.0
87.588057953,1372.0
87.604769222,1367.0
87.621480491,1337.0
87.638191760,1355.0
87.654903029,1381.0
87.671614298,1423.0
87.688325567,1345.0
87.705036836,1337.0
87.721748105,1376.0
87.738459374,1372.0
87.755170643,1399.0
87.771881911,1393.0
87.788593180,1366.0
87.805304449,1445.0
87.822015718,1365.0
87.838726987,1355.0
87.855438256,1391.0
87.872149525,1391.0
87.888860794,1437.0
87.905572063,1380.0
87.922283332,1426.0
87.938994601,1377.0
87.955705870,1344.0
87.972417139,1377.0
87.989128408,1422.0
88.005839677,1397.0
88.022550946,1453.0
88.039262215,1384.0
88.055973484,1415.0
88.072684753,1373.0
88.089396022,1294.0
88.106107291,1382.0
88.122818560,1342.0
88.139529829,1377.0
88.156241098,1368.0
88.172952367,1361.0
88.189663636,1438.0
88.206374905,1444.0
88.223086174,1384.0
88.239797443,1393.0
88.256508712,1387.0
88.273219981,1375.0
88.289931250,1408.0
88.306642519,1356.0
88.323353788,1352.0
88.340065057,1394.0
88.356776326,1404.0
88.373487595,1398.0
88.390198864,1447.0
88.406910133,1392.0
88.423621402,1387.0
88.440332671,1364.0
88.457043940,1355.0
88.473755209,1336.0
88.490466478,1405.0
88.507177747,1391.0
88.523889016,1430.0
88.540600284,1357.0
88.557311553,1359.0
88.574022822,1380.0
88.590734091,1436.0
88.607445360,1371.0
88.624156629,1368.0
88.640867898,1390.0
88.657579167,1321.0
88.674290436,1369.0
88.691001705,1437.0
88.707712974,1441.0
88.724424243,1357.0
88.741135512,1400.0
88.757846781,1360.0
88.774558050,1361.0
88.791269319,1389.0
88.807980588,1380.0
88.824691857,1428.0
88.841403126,1445.0
88.858114395,1357.0
88.874825664,1365.0
88.891536933,1296.0
88.908248202,1417.0
88.924959471,1428.0
88.941670740,1398.0
88.958382009,1396.0
88.975093278,1403.0
88.991804547,1366.0
89.008515816,1373.0
89.025227085,1436.0
89.041938354,1458.0
89.058649623,1367.0
89.075360892,1447.0
89.092072161,1422.0
89.108783430,1418.0
89.125494699,1407.0
89.142205968,1454.0
89.158917237,1413.0
89.175628506,1394.0
89.192339775,1411.0
89.209051044,1342.0
89.225762313,1363.0
89.242473582,1337.0
89.259184851,1385.0
89.275896120,1367.0
89.292607388,1392.0
89.309318657,1461.0
89.326029926,1425.0
89.342741195,1357.0
89.359452464,1325.0
89.376163733,1432.0
89.392875002,1440.0
89.409586271,1420.0
89.426297540,1422.0
89.443008809,1348.0
89.459720078,1358.0
89.476431347,1383.0
89.493142616,1386.0
89.509853885,1323.0
89.526565154,1338.0
89.543276423,1378.0
89.559987692,1406.0
89.576698961,1394.0
89.593410230,1422.0
89.610121499,1320.0
89.626832768,1352.0
89.643544037,1356.0
89.660255306,1385.0
89.676966575,1386.0
89.693677844,1369.0
89.710389113,1384.0
89.727100382,1320.0
89.743811651,1370.0
89.760522920,1389.0
89.777234189,1366.0
89.793945458,1370.0
89.810656727,1408.0
89.827367996,1396.0
89.844079265,1419.0
89.860790534,1392.0
89.877501803,1347.0
89.894213072,1335.0
89.910924341,1353.0
89.927635610,1366.0
89.944346879,1402.0
89.961058148,1452.0
89.977769417,1400.0
89.994480686,1426.0
90.011191955,1382.0
90.027903224,1335.0
90.044614493,1448.0
90.061325761,1358.0
90.078037030,1416.0
90.094748299,1299.0
90.111459568,1320.0
90.128170837,1311.0
90.144882106,1302.0
90.161593375,1427.0
90.178304644,1387.0
90.195015913,1375.0
90.211727182,1403.0
90.228438451,1350.0
90.245149720,1333.0
90.261860989,1340.0
90.278572258,1335.0
90.295283527,1424.0
90.311994796,1410.0
90.328706065,1364.0
90.345417334,1281.0
90.362128603,1381.0
90.378839872,1399.0
90.395551141,1392.0
90.412262410,1345.0
90.428973679,1332.0
90.445684948,1390.0
90.462396217,1400.0
90.479107486,1399.0
90.495818755,1394.0
90.512530024,1375.0
90.529241293,1367.0
90.545952562,1387.0
90.562663831,1398.0
90.579375100,1356.0
90.596086369,1397.0
90.612797638,1401.0
90.629508907,1267.0
90.646220176,1345.0
90.662931445,1343.0
90.679642714,1300.0
90.696353983,1355.0
90.713065252,1380.0
90.729776521,1312.0
90.746487790,1349.0
90.763199059,1336.0
90.779910328,1355.0
90.796621597,1361.0
90.813332865,1335.0
90.830044134,1353.0
90.846755403,1341.0
90.863466672,1385.0
90.880177941,1412.0
90.896889210,1419.0
90.913600479,1314.0
90.930311748,1371.0
90.947023017,1339.0
90.963734286,1365.0
90.980445555,1385.0
90.997156824,1347.0
91.013868093,1393.0
91.030579362,1362.0
91.047290631,1340.0
91.064001900,1342.0
91.080713169,1368.0
91.097424438,1402.0
91.114135707,1332.0
91.130846976,1403.0
91.147558245,1455.0
91.164269514,1381.0
91.180980783,1375.0
91.197692052,1397.0
91.214403321,1393.0
91.231114590,1406.0
91.247825859,1336.0
91.264537128,1419.0
91.281248397,1491.0
91.297959666,1417.0
91.314670935,1440.0
91.331382204,1419.0
91.348093473,1421.0
91.364804742,1470.0
91.381516011,1438.0
91.398227280,1409.0
91.414938549,1457.0
91.431649818,1418.0
91.448361087,1506.0
91.465072356,1386.0
91.481783625,1473.0
91.498494894,1373.0
91.515206163,1524.0
91.531917432,1452.0
91.548628701,1440.0
91.565339970,1501.0
91.582051238,1477.0
91.598762507,1454.0
91.615473776,1535.0
91.632185045,1443.0
91.648896314,1391.0
91.665607583,1475.0
91.682318852,1493.0
91.699030121,1484.0
91.715741390,1530.0
91.732452659,1509.0
91.749163928,1524.0
91.765875197,1538.0
91.782586466,1598.0
91.799297735,1524.0
91.816009004,1497.0
91.832720273,1558.0
91.849431542,1592.0
91.866142811,1585.0
91.882854080,1616.0
91.899565349,1538.0
91.916276618,1619.0
91.932987887,1624.0
91.949699156,1681.0
91.966410425,1700.0
91.983121694,1627.0
91.999832963,1699.0
92.016544232,1725.0
92.033255501,1747.0
92.049966770,1720.0
92.066678039,1778.0
92.083389308,1829.0
92.100100577,1757.0
92.116811846,1824.0
92.133523115,1798.0
92.150234384,1736.0
92.166945653,1852.0
92.183656922,1764.0
92.200368191,1790.0
92.217079460,1806.0
92.233790729,1786.0
92.250501998,1692.0
92.267213267,1772.0
92.283924536,1708.0
92.300635805,1677.0
92.317347074,1727.0
92.334058342,1711.0
92.350769611,1637.0
92.367480880,1571.0
92.384192149,1742.0
92.400903418,1702.0
92.417614687,1617.0
92.434325956,1663.0
92.451037225,1550.0
92.467748494,1678.0
92.484459763,1552.0
92.501171032,1651.0
92.517882301,1539.0
92.534593570,1554.0
92.551304839,1565.0
92.568016108,1558.0
92.584727377,1529.0
92.601438646,1559.0
92.618149915,1448.0
92.634861184,1468.0
92.651572453,1363.0
92.668283722,1492.0
92.684994991,1365.0
92.701706260,1406.0
92.718417529,1426.0
92.735128798,1448.0
92.751840067,1397.0
92.768551336,1373.0
92.785262605,1446.0
92.801973874,1447.0
92.818685143,1371.0
92.835396412,1396.0
92.852107681,1470.0
92.868818950,1390.0
92.885530219,1453.0
92.902241488,1435.0
92.918952757,1408.0
92.935664026,1343.0
92.952375295,1378.0
92.969086564,1326.0
92.985797833,1352.0
93.002509102,1376.0
93.019220371,1349.0
93.035931640,1402.0
93.052642909,1394.0
93.069354178,1406.0
93.086065447,1383.0
93.102776715,1348.0
93.119487984,1427.0
93.136199253,1366.0
93.152910522,1287.0
93.169621791,1338.0
93.186333060,1405.0
93.203044329,1332.0
93.219755598,1301.0
93.236466867,1399.0
93.253178136,1360.0
93.269889405,1335.0
93.286600674,1370.0
93.303311943,1357.0
93.320023212,1349.0
93.336734481,1368.0
93.353445750,1363.0
93.370157019,1306.0
93.386868288,1357.0
93.403579557,1364.0
93.420290826,1372.0
93.437002095,1370.0
93.453713364,1365.0
93.470424633,1333.0
93.487135902,1458.0
93.503847171,1370.0
93.520558440,1362.0
93.537269709,1310.0
93.553980978,1311.0
93.570692247,1329.0
93.587403516,1305.0
93.604114785,1383.0
93.620826054,1283.0
93.637537323,1363.0
93.654248592,1310.0
93.670959861,1447.0
93.687671130,1345.0
93.704382399,1325.0
93.721093668,1364.0
93.737804937,1357.0
93.754516206,1365.0
93.771227475,1336.0
93.787938744,1348.0
93.804650013,1326.0
93.821361282,1278.0
93.838072551,1335.0
93.854783819,1334.0
93.871495088,1323.0
93.888206357,1381.0
93.904917626,1365.0
93.921628895,1359.0
93.938340164,1394.0
93.955051433,1387.0
93.971762702,1317.0
93.988473971,1289.0
94.005185240,1378.0
94.021896509,1248.0
94.038607778,1290.0
94.055319047,1323.0
94.072030316,1301.0
94.088741585,1343.0
94.105452854,1349.0
94.122164123,1272.0
94.138875392,1360.0
94.155586661,1304.0
94.172297930,1361.0
94.189009199,1338.0
94.205720468,1362.0
94.222431737,1393.0
94.239143006,1299.0
94.255854275,1315.0
94.272565544,1288.0
94.289276813,1320.0
94.305988082,1346.0
94.322699351,1300.0
94.339410620,1337.0
94.356121889,1359.0
94.372833158,1286.0
94.389544427,1345.0
94.406255696,1285.0
94.422966965,1367.0
94.439678234,1381.0
94.456389503,1277.0
94.473100772,1337.0
94.489812041,1323.0
94.506523310,1325.0
94.523234579,1400.0
94.539945848,1293.0
94.556657117,1307.0
94.573368386,1258.0
94.590079655,1311.0
94.606790924,1325.0
94.623502192,1283.0
94.640213461,1342.0
94.656924730,1263.0
94.673635999,1343.0
94.690347268,1327.0
94.707058537,1368.0
94.723769806,1321.0
94.740481075,1338.0
94.757192344,1331.0
94.773903613,1304.0
94.790614882,1349.0
94.807326151,1353.0
94.824037420,1328.0
94.840748689,1320.0
94.857459958,1359.0
94.874171227,1364.0
94.890882496,1280.0
94.907593765,1327.0
94.924305034,1322.0
94.941016303,1288.0
94.957727572,1372.0
94.974438841,1377.0
94.991150110,1352.0
