[Measurement conditions]
Sample identification,
Comment - 1,"finito"
Comment - 2,"Configuration=MRI TC-Basic Stage, Owner=User-1, Creation date=26-10-2009 9:18:44"
Comment - 3,"Goniometer=PW3050/60 (Theta/Theta); Minimum step size 2Theta:0.001; Minimum step size Omega:0.001"
Comment - 4,"Sample stage=MRI TC-Basic (PtRh heat strip)"
Comment - 5,"Diffractometer system=XPERT-PRO"
Comment - 6,"Measurement program=FS-L, Owner=joana, Creation date=25-11-2014 17:28:08"
Anode material,Cu
K-Alpha1 wavelength,1.5405980
K-Alpha2 wavelength,1.5444260
Ratio K-Alpha2/K-Alpha1,0.500
Divergence slit,Fixed,0.76mm
Monochromator used,NO
Generator voltage, 45
Tube current, 40
File date and time,15-Dez-2017 20:44
Unit cell,
h k l, 0 0 0
Temperature [K],473
Scan axis,Gonio
Scan range,24.995999996,94.999505744
Scan step size,0.0167113
No. of points, 4189
Scan type,CONTINUOUS
Time per step,118.110
[Scan points]
Angle,Intensity
25.004355630,2309.0
25.021066899,2262.0
25.037778168,2382.0
25.054489437,2196.0
25.071200706,2227.0
25.087911975,2243.0
25.104623244,2320.0
25.121334513,2230.0
25.138045782,2295.0
25.154757051,2279.0
25.171468320,2272.0
25.188179589,2305.0
25.204890858,2252.0
25.221602127,2209.0
25.238313396,2193.0
25.255024665,2317.0
25.271735934,2332.0
25.288447203,2194.0
25.305158472,2256.0
25.321869741,2196.0
25.338581010,2304.0
25.355292279,2239.0
25.372003548,2266.0
25.388714816,2232.0
25.405426085,2208.0
25.422137354,2219.0
25.438848623,2246.0
25.455559892,2231.0
25.472271161,2177.0
25.488982430,2163.0
25.505693699,2111.0
25.522404968,2267.0
25.539116237,2221.0
25.555827506,2295.0
25.572538775,2259.0
25.589250044,2337.0
25.605961313,2264.0
25.622672582,2275.0
25.639383851,2323.0
25.656095120,2231.0
25.672806389,2211.0
25.689517658,2176.0
25.706228927,2291.0
25.722940196,2282.0
25.739651465,2219.0
25.756362734,2227.0
25.773074003,2263.0
25.789785272,2271.0
25.806496541,2199.0
25.823207810,2229.0
25.839919079,2273.0
25.856630348,2203.0
25.873341617,2255.0
25.890052886,2211.0
25.906764155,2214.0
25.923475424,2259.0
25.940186693,2088.0
25.956897962,2176.0
25.973609231,2217.0
25.990320500,2254.0
26.007031769,2229.0
26.023743038,2259.0
26.040454307,2228.0
26.057165576,2165.0
26.073876845,2225.0
26.090588114,2229.0
26.107299383,2186.0
26.124010652,2215.0
26.140721921,2118.0
26.157433189,2273.0
26.174144458,2279.0
26.190855727,2235.0
26.207566996,2190.0
26.224278265,2202.0
26.240989534,2197.0
26.257700803,2225.0
26.274412072,2215.0
26.291123341,2247.0
26.307834610,2266.0
26.324545879,2236.0
26.341257148,2207.0
26.357968417,2181.0
26.374679686,2165.0
26.391390955,2225.0
26.408102224,2170.0
26.424813493,2216.0
26.441524762,2283.0
26.458236031,2288.0
26.474947300,2331.0
26.491658569,2222.0
26.508369838,2278.0
26.525081107,2211.0
26.541792376,2216.0
26.558503645,2172.0
26.575214914,2233.0
26.591926183,2225.0
26.608637452,2213.0
26.625348721,2088.0
26.642059990,2291.0
26.658771259,2270.0
26.675482528,2188.0
26.692193797,2293.0
26.708905066,2180.0
26.725616335,2170.0
26.742327604,2221.0
26.759038873,2194.0
26.775750142,2327.0
26.792461411,2205.0
26.809172680,2236.0
26.825883949,2192.0
26.842595218,2151.0
26.859306487,2198.0
26.876017756,2190.0
26.892729025,2208.0
26.909440293,2286.0
26.926151562,2289.0
26.942862831,2181.0
26.959574100,2220.0
26.976285369,2159.0
26.992996638,2235.0
27.009707907,2210.0
27.026419176,2162.0
27.043130445,2285.0
27.059841714,2200.0
27.076552983,2167.0
27.093264252,2145.0
27.109975521,2115.0
27.126686790,2290.0
27.143398059,2226.0
27.160109328,2195.0
27.176820597,2230.0
27.193531866,2264.0
27.210243135,2209.0
27.226954404,2209.0
27.243665673,2204.0
27.260376942,2217.0
27.277088211,2210.0
27.293799480,2193.0
27.310510749,2206.0
27.327222018,2251.0
27.343933287,2224.0
27.360644556,2331.0
27.377355825,2239.0
27.394067094,2182.0
27.410778363,2213.0
27.427489632,2200.0
27.444200901,2186.0
27.460912170,2178.0
27.477623439,2157.0
27.494334708,2188.0
27.511045977,2152.0
27.527757246,2210.0
27.544468515,2157.0
27.561179784,2198.0
27.577891053,2276.0
27.594602322,2126.0
27.611313591,2189.0
27.628024860,2147.0
27.644736129,2127.0
27.661447398,2187.0
27.678158666,2232.0
27.694869935,2217.0
27.711581204,2226.0
27.728292473,2207.0
27.745003742,2191.0
27.761715011,2245.0
27.778426280,2151.0
27.795137549,2128.0
27.811848818,2220.0
27.828560087,2172.0
27.845271356,2217.0
27.861982625,2191.0
27.878693894,2243.0
27.895405163,2187.0
27.912116432,2153.0
27.928827701,2216.0
27.945538970,2184.0
27.962250239,2199.0
27.978961508,2123.0
27.995672777,2234.0
28.012384046,2165.0
28.029095315,2242.0
28.045806584,2233.0
28.062517853,2245.0
28.079229122,2190.0
28.095940391,2176.0
28.112651660,2157.0
28.129362929,2247.0
28.146074198,2224.0
28.162785467,2117.0
28.179496736,2200.0
28.196208005,2178.0
28.212919274,2201.0
28.229630543,2192.0
28.246341812,2363.0
28.263053081,2450.0
28.279764350,3398.0
28.296475619,2938.0
28.313186888,2472.0
28.329898157,2444.0
28.346609426,2557.0
28.363320695,2846.0
28.380031964,2502.0
28.396743233,2340.0
28.413454502,2407.0
28.430165770,2356.0
28.446877039,2298.0
28.463588308,2389.0
28.480299577,2354.0
28.497010846,2304.0
28.513722115,2421.0
28.530433384,2425.0
28.547144653,2398.0
28.563855922,2318.0
28.580567191,2395.0
28.597278460,2353.0
28.613989729,2400.0
28.630700998,2386.0
28.647412267,2296.0
28.664123536,2260.0
28.680834805,2344.0
28.697546074,2383.0
28.714257343,2179.0
28.730968612,2362.0
28.747679881,2383.0
28.764391150,2300.0
28.781102419,2280.0
28.797813688,2267.0
28.814524957,2216.0
28.831236226,2271.0
28.847947495,2143.0
28.864658764,2305.0
28.881370033,2207.0
28.898081302,2190.0
28.914792571,2158.0
28.931503840,2269.0
28.948215109,2238.0
28.964926378,2338.0
28.981637647,2224.0
28.998348916,2200.0
29.015060185,2248.0
29.031771454,2222.0
29.048482723,2248.0
29.065193992,2247.0
29.081905261,2133.0
29.098616530,2187.0
29.115327799,2256.0
29.132039068,2204.0
29.148750337,2117.0
29.165461606,2198.0
29.182172875,2207.0
29.198884143,2193.0
29.215595412,2249.0
29.232306681,2209.0
29.249017950,2218.0
29.265729219,2181.0
29.282440488,2188.0
29.299151757,2180.0
29.315863026,2179.0
29.332574295,2219.0
29.349285564,2200.0
29.365996833,2167.0
29.382708102,2250.0
29.399419371,2253.0
29.416130640,2183.0
29.432841909,2188.0
29.449553178,2250.0
29.466264447,2140.0
29.482975716,2119.0
29.499686985,2213.0
29.516398254,2139.0
29.533109523,2237.0
29.549820792,2161.0
29.566532061,2131.0
29.583243330,2167.0
29.599954599,2190.0
29.616665868,2133.0
29.633377137,2113.0
29.650088406,2191.0
29.666799675,2183.0
29.683510944,2178.0
29.700222213,2191.0
29.716933482,2107.0
29.733644751,2198.0
29.750356020,2143.0
29.767067289,2198.0
29.783778558,2112.0
29.800489827,2230.0
29.817201096,2112.0
29.833912365,2145.0
29.850623634,2143.0
29.867334903,2088.0
29.884046172,2030.0
29.900757441,2164.0
29.917468710,2189.0
29.934179979,2087.0
29.950891247,2217.0
29.967602516,2218.0
29.984313785,2109.0
30.001025054,2138.0
30.017736323,2137.0
30.034447592,2254.0
30.051158861,2176.0
30.067870130,2148.0
30.084581399,2108.0
30.101292668,2166.0
30.118003937,2174.0
30.134715206,2136.0
30.151426475,2167.0
30.168137744,2122.0
30.184849013,2195.0
30.201560282,2130.0
30.218271551,2017.0
30.234982820,2119.0
30.251694089,2103.0
30.268405358,2152.0
30.285116627,2171.0
30.301827896,2106.0
30.318539165,2097.0
30.335250434,2082.0
30.351961703,2077.0
30.368672972,2143.0
30.385384241,2200.0
30.402095510,2071.0
30.418806779,2193.0
30.435518048,2117.0
30.452229317,2141.0
30.468940586,2211.0
30.485651855,2205.0
30.502363124,2155.0
30.519074393,2146.0
30.535785662,2129.0
30.552496931,2163.0
30.569208200,2036.0
30.585919469,2069.0
30.602630738,2132.0
30.619342007,2059.0
30.636053276,2168.0
30.652764545,2148.0
30.669475814,2081.0
30.686187083,2168.0
30.702898352,2112.0
30.719609620,2117.0
30.736320889,2176.0
30.753032158,2164.0
30.769743427,2236.0
30.786454696,2018.0
30.803165965,2128.0
30.819877234,2064.0
30.836588503,2078.0
30.853299772,2148.0
30.870011041,2199.0
30.886722310,2097.0
30.903433579,2132.0
30.920144848,2132.0
30.936856117,2136.0
30.953567386,2055.0
30.970278655,2128.0
30.986989924,2102.0
31.003701193,2213.0
31.020412462,2112.0
31.037123731,2150.0
31.053835000,2116.0
31.070546269,2052.0
31.087257538,2190.0
31.103968807,2106.0
31.120680076,2178.0
31.137391345,2194.0
31.154102614,2175.0
31.170813883,2152.0
31.187525152,2020.0
31.204236421,2174.0
31.220947690,2134.0
31.237658959,2193.0
31.254370228,2109.0
31.271081497,2075.0
31.287792766,2185.0
31.304504035,2019.0
31.321215304,2136.0
31.337926573,2153.0
31.354637842,2129.0
31.371349111,2133.0
31.388060380,2124.0
31.404771649,2052.0
31.421482918,2088.0
31.438194187,2087.0
31.454905456,2126.0
31.471616724,2094.0
31.488327993,2161.0
31.505039262,2080.0
31.521750531,2065.0
31.538461800,2080.0
31.555173069,2132.0
31.571884338,2114.0
31.588595607,2088.0
31.605306876,2153.0
31.622018145,2084.0
31.638729414,2019.0
31.655440683,2173.0
31.672151952,2066.0
31.688863221,2096.0
31.705574490,2124.0
31.722285759,2156.0
31.738997028,2176.0
31.755708297,2136.0
31.772419566,2057.0
31.789130835,2102.0
31.805842104,2089.0
31.822553373,2130.0
31.839264642,2088.0
31.855975911,2094.0
31.872687180,2112.0
31.889398449,2005.0
31.906109718,2075.0
31.922820987,2192.0
31.939532256,2178.0
31.956243525,2148.0
31.972954794,2144.0
31.989666063,2116.0
32.006377332,2111.0
32.023088601,2093.0
32.039799870,2085.0
32.056511139,2152.0
32.073222408,2109.0
32.089933677,2126.0
32.106644946,2145.0
32.123356215,2153.0
32.140067484,2036.0
32.156778753,2087.0
32.173490022,2131.0
32.190201291,2130.0
32.206912560,2047.0
32.223623829,2225.0
32.240335097,2148.0
32.257046366,2194.0
32.273757635,2081.0
32.290468904,2154.0
32.307180173,2067.0
32.323891442,2094.0
32.340602711,2098.0
32.357313980,2201.0
32.374025249,2139.0
32.390736518,2106.0
32.407447787,2071.0
32.424159056,2041.0
32.440870325,2178.0
32.457581594,2133.0
32.474292863,2082.0
32.491004132,2089.0
32.507715401,2079.0
32.524426670,2231.0
32.541137939,2156.0
32.557849208,2089.0
32.574560477,2075.0
32.591271746,2044.0
32.607983015,2222.0
32.624694284,2130.0
32.641405553,2173.0
32.658116822,2075.0
32.674828091,2144.0
32.691539360,2126.0
32.708250629,2103.0
32.724961898,2159.0
32.741673167,2080.0
32.758384436,2078.0
32.775095705,2141.0
32.791806974,2068.0
32.808518243,2101.0
32.825229512,2119.0
32.841940781,2109.0
32.858652050,2136.0
32.875363319,2197.0
32.892074588,2144.0
32.908785857,2144.0
32.925497126,2130.0
32.942208395,2156.0
32.958919664,2143.0
32.975630933,2096.0
32.992342201,2100.0
33.009053470,2094.0
33.025764739,2041.0
33.042476008,2117.0
33.059187277,2117.0
33.075898546,2046.0
33.092609815,2128.0
33.109321084,2102.0
33.126032353,2171.0
33.142743622,2135.0
33.159454891,2033.0
33.176166160,2140.0
33.192877429,2093.0
33.209588698,2102.0
33.226299967,2159.0
33.243011236,2139.0
33.259722505,2143.0
33.276433774,2041.0
33.293145043,1999.0
33.309856312,2103.0
33.326567581,2077.0
33.343278850,2086.0
33.359990119,2148.0
33.376701388,2101.0
33.393412657,2110.0
33.410123926,2019.0
33.426835195,2000.0
33.443546464,2118.0
33.460257733,2079.0
33.476969002,2141.0
33.493680271,2019.0
33.510391540,2041.0
33.527102809,2066.0
33.543814078,2110.0
33.560525347,2094.0
33.577236616,2226.0
33.593947885,2201.0
33.610659154,2131.0
33.627370423,2084.0
33.644081692,2022.0
33.660792961,2114.0
33.677504230,2060.0
33.694215499,2177.0
33.710926768,2077.0
33.727638037,2122.0
33.744349306,1995.0
33.761060574,2068.0
33.777771843,2024.0
33.794483112,2029.0
33.811194381,2014.0
33.827905650,1998.0
33.844616919,2044.0
33.861328188,2140.0
33.878039457,2183.0
33.894750726,2077.0
33.911461995,2134.0
33.928173264,2102.0
33.944884533,2126.0
33.961595802,2151.0
33.978307071,2036.0
33.995018340,2117.0
34.011729609,2105.0
34.028440878,2197.0
34.045152147,2142.0
34.061863416,2105.0
34.078574685,2098.0
34.095285954,2063.0
34.111997223,2139.0
34.128708492,2075.0
34.145419761,2164.0
34.162131030,2085.0
34.178842299,2151.0
34.195553568,2084.0
34.212264837,2084.0
34.228976106,2066.0
34.245687375,2047.0
34.262398644,2126.0
34.279109913,2136.0
34.295821182,2071.0
34.312532451,2166.0
34.329243720,2064.0
34.345954989,2168.0
34.362666258,2154.0
34.379377527,2092.0
34.396088796,2145.0
34.412800065,2053.0
34.429511334,2090.0
34.446222603,2129.0
34.462933872,2102.0
34.479645141,2087.0
34.496356410,2110.0
34.513067679,2008.0
34.529778947,2070.0
34.546490216,2083.0
34.563201485,2145.0
34.579912754,2092.0
34.596624023,2076.0
34.613335292,2114.0
34.630046561,2081.0
34.646757830,2111.0
34.663469099,2091.0
34.680180368,2113.0
34.696891637,2096.0
34.713602906,2076.0
34.730314175,2117.0
34.747025444,2092.0
34.763736713,2126.0
34.780447982,2098.0
34.797159251,2078.0
34.813870520,2043.0
34.830581789,2104.0
34.847293058,2134.0
34.864004327,2028.0
34.880715596,2039.0
34.897426865,2084.0
34.914138134,2076.0
34.930849403,2045.0
34.947560672,1940.0
34.964271941,2147.0
34.980983210,2045.0
34.997694479,2078.0
35.014405748,2087.0
35.031117017,2016.0
35.047828286,2075.0
35.064539555,2169.0
35.081250824,1976.0
35.097962093,2012.0
35.114673362,2064.0
35.131384631,2088.0
35.148095900,2172.0
35.164807169,2011.0
35.181518438,2122.0
35.198229707,2029.0
35.214940976,2230.0
35.231652245,2104.0
35.248363514,2171.0
35.265074783,2123.0
35.281786051,2059.0
35.298497320,2168.0
35.315208589,2075.0
35.331919858,1992.0
35.348631127,2079.0
35.365342396,2093.0
35.382053665,2047.0
35.398764934,2009.0
35.415476203,2023.0
35.432187472,2089.0
35.448898741,2076.0
35.465610010,2014.0
35.482321279,2089.0
35.499032548,2109.0
35.515743817,2128.0
35.532455086,2079.0
35.549166355,2063.0
35.565877624,2081.0
35.582588893,2014.0
35.599300162,2039.0
35.616011431,2106.0
35.632722700,2069.0
35.649433969,2010.0
35.666145238,2035.0
35.682856507,2128.0
35.699567776,2054.0
35.716279045,2153.0
35.732990314,1988.0
35.749701583,2107.0
35.766412852,2157.0
35.783124121,1984.0
35.799835390,2093.0
35.816546659,2096.0
35.833257928,2045.0
35.849969197,2111.0
35.866680466,2028.0
35.883391735,2039.0
35.900103004,2043.0
35.916814273,2034.0
35.933525542,2006.0
35.950236811,2165.0
35.966948080,2098.0
35.983659349,2025.0
36.000370618,2040.0
36.017081887,2040.0
36.033793156,2024.0
36.050504424,2090.0
36.067215693,2091.0
36.083926962,2139.0
36.100638231,2071.0
36.117349500,2069.0
36.134060769,2068.0
36.150772038,2124.0
36.167483307,2090.0
36.184194576,2085.0
36.200905845,2142.0
36.217617114,2159.0
36.234328383,2098.0
36.251039652,2035.0
36.267750921,2065.0
36.284462190,1990.0
36.301173459,2102.0
36.317884728,2017.0
36.334595997,2012.0
36.351307266,2042.0
36.368018535,1989.0
36.384729804,2078.0
36.401441073,2028.0
36.418152342,2098.0
36.434863611,2067.0
36.451574880,2033.0
36.468286149,2091.0
36.484997418,2124.0
36.501708687,2157.0
36.518419956,2093.0
36.535131225,2017.0
36.551842494,2064.0
36.568553763,2108.0
36.585265032,2125.0
36.601976301,2089.0
36.618687570,2039.0
36.635398839,2058.0
36.652110108,2094.0
36.668821377,2053.0
36.685532646,1984.0
36.702243915,2040.0
36.718955184,2105.0
36.735666453,1980.0
36.752377722,2083.0
36.769088991,2090.0
36.785800260,1923.0
36.802511528,2048.0
36.819222797,2002.0
36.835934066,2087.0
36.852645335,2091.0
36.869356604,2038.0
36.886067873,2057.0
36.902779142,2111.0
36.919490411,2061.0
36.936201680,1985.0
36.952912949,2082.0
36.969624218,1981.0
36.986335487,2042.0
37.003046756,1973.0
37.019758025,2087.0
37.036469294,2020.0
37.053180563,2097.0
37.069891832,2051.0
37.086603101,2038.0
37.103314370,2046.0
37.120025639,2058.0
37.136736908,1950.0
37.153448177,2059.0
37.170159446,2142.0
37.186870715,2056.0
37.203581984,2061.0
37.220293253,2085.0
37.237004522,1981.0
37.253715791,2097.0
37.270427060,2046.0
37.287138329,2073.0
37.303849598,2050.0
37.320560867,2028.0
37.337272136,2082.0
37.353983405,2048.0
37.370694674,1976.0
37.387405943,2030.0
37.404117212,2086.0
37.420828481,2111.0
37.437539750,2007.0
37.454251019,2137.0
37.470962288,2080.0
37.487673557,2069.0
37.504384826,2059.0
37.521096095,2055.0
37.537807364,2090.0
37.554518633,2068.0
37.571229901,2088.0
37.587941170,2124.0
37.604652439,2022.0
37.621363708,2005.0
37.638074977,2082.0
37.654786246,1993.0
37.671497515,2068.0
37.688208784,2048.0
37.704920053,2098.0
37.721631322,2036.0
37.738342591,2072.0
37.755053860,2075.0
37.771765129,2049.0
37.788476398,2012.0
37.805187667,2091.0
37.821898936,2062.0
37.838610205,2053.0
37.855321474,2067.0
37.872032743,2019.0
37.888744012,2166.0
37.905455281,2067.0
37.922166550,2141.0
37.938877819,1999.0
37.955589088,2126.0
37.972300357,2019.0
37.989011626,2027.0
38.005722895,2169.0
38.022434164,2078.0
38.039145433,2092.0
38.055856702,2143.0
38.072567971,2140.0
38.089279240,2084.0
38.105990509,2125.0
38.122701778,2145.0
38.139413047,2093.0
38.156124316,2056.0
38.172835585,2089.0
38.189546854,2129.0
38.206258123,2157.0
38.222969392,1972.0
38.239680661,2025.0
38.256391930,2068.0
38.273103199,2117.0
38.289814468,2085.0
38.306525737,2082.0
38.323237005,2070.0
38.339948274,2004.0
38.356659543,2019.0
38.373370812,2104.0
38.390082081,1971.0
38.406793350,2085.0
38.423504619,2083.0
38.440215888,2098.0
38.456927157,1960.0
38.473638426,2006.0
38.490349695,1992.0
38.507060964,1986.0
38.523772233,1963.0
38.540483502,1974.0
38.557194771,2025.0
38.573906040,2092.0
38.590617309,2040.0
38.607328578,2039.0
38.624039847,2076.0
38.640751116,2050.0
38.657462385,2160.0
38.674173654,1966.0
38.690884923,2064.0
38.707596192,2010.0
38.724307461,1963.0
38.741018730,2066.0
38.757729999,2004.0
38.774441268,2026.0
38.791152537,2036.0
38.807863806,2015.0
38.824575075,2055.0
38.841286344,2014.0
38.857997613,2134.0
38.874708882,2048.0
38.891420151,2031.0
38.908131420,2058.0
38.924842689,2053.0
38.941553958,2031.0
38.958265227,1988.0
38.974976496,1998.0
38.991687765,2029.0
39.008399034,2037.0
39.025110303,2066.0
39.041821572,1977.0
39.058532841,2104.0
39.075244110,1980.0
39.091955378,1962.0
39.108666647,2072.0
39.125377916,2017.0
39.142089185,2049.0
39.158800454,1997.0
39.175511723,2182.0
39.192222992,2037.0
39.208934261,2064.0
39.225645530,2006.0
39.242356799,1998.0
39.259068068,1974.0
39.275779337,1991.0
39.292490606,1985.0
39.309201875,2056.0
39.325913144,1983.0
39.342624413,2042.0
39.359335682,2055.0
39.376046951,1988.0
39.392758220,2031.0
39.409469489,2038.0
39.426180758,2040.0
39.442892027,2062.0
39.459603296,2059.0
39.476314565,2075.0
39.493025834,1981.0
39.509737103,2015.0
39.526448372,2074.0
39.543159641,2015.0
39.559870910,1945.0
39.576582179,2127.0
39.593293448,2168.0
39.610004717,2075.0
39.626715986,2218.0
39.643427255,2085.0
39.660138524,2141.0
39.676849793,2310.0
39.693561062,2257.0
39.710272331,2348.0
39.726983600,2416.0
39.743694869,2476.0
39.760406138,2488.0
39.777117407,2432.0
39.793828676,2327.0
39.810539945,2265.0
39.827251214,2111.0
39.843962482,2202.0
39.860673751,2246.0
39.877385020,2270.0
39.894096289,2178.0
39.910807558,2120.0
39.927518827,2170.0
39.944230096,2063.0
39.960941365,2091.0
39.977652634,2075.0
39.994363903,2169.0
40.011075172,2122.0
40.027786441,2151.0
40.044497710,2115.0
40.061208979,2185.0
40.077920248,2155.0
40.094631517,2118.0
40.111342786,2142.0
40.128054055,2139.0
40.144765324,2021.0
40.161476593,2157.0
40.178187862,2041.0
40.194899131,2111.0
40.211610400,2088.0
40.228321669,1981.0
40.245032938,2095.0
40.261744207,2112.0
40.278455476,2018.0
40.295166745,1970.0
40.311878014,1959.0
40.328589283,2012.0
40.345300552,1959.0
40.362011821,1921.0
40.378723090,2046.0
40.395434359,2018.0
40.412145628,2017.0
40.428856897,1991.0
40.445568166,1975.0
40.462279435,1958.0
40.478990704,2009.0
40.495701973,2072.0
40.512413242,2052.0
40.529124511,1957.0
40.545835780,1981.0
40.562547049,1964.0
40.579258318,1987.0
40.595969587,2094.0
40.612680855,1984.0
40.629392124,2037.0
40.646103393,1977.0
40.662814662,2041.0
40.679525931,2077.0
40.696237200,2002.0
40.712948469,2098.0
40.729659738,2051.0
40.746371007,1977.0
40.763082276,2040.0
40.779793545,2049.0
40.796504814,1975.0
40.813216083,2015.0
40.829927352,1930.0
40.846638621,2030.0
40.863349890,1969.0
40.880061159,2081.0
40.896772428,1957.0
40.913483697,1998.0
40.930194966,1983.0
40.946906235,1984.0
40.963617504,2008.0
40.980328773,2026.0
40.997040042,2025.0
41.013751311,2028.0
41.030462580,1936.0
41.047173849,2034.0
41.063885118,1934.0
41.080596387,2034.0
41.097307656,2063.0
41.114018925,1980.0
41.130730194,2079.0
41.147441463,2011.0
41.164152732,1994.0
41.180864001,1929.0
41.197575270,2033.0
41.214286539,2021.0
41.230997808,1966.0
41.247709077,2010.0
41.264420346,2012.0
41.281131615,1994.0
41.297842884,2066.0
41.314554153,2033.0
41.331265422,2053.0
41.347976691,1981.0
41.364687959,1985.0
41.381399228,1924.0
41.398110497,2082.0
41.414821766,1928.0
41.431533035,2037.0
41.448244304,1972.0
41.464955573,2005.0
41.481666842,2075.0
41.498378111,2034.0
41.515089380,2021.0
41.531800649,1945.0
41.548511918,2004.0
41.565223187,2001.0
41.581934456,1956.0
41.598645725,2019.0
41.615356994,2052.0
41.632068263,2011.0
41.648779532,1969.0
41.665490801,1920.0
41.682202070,1998.0
41.698913339,1967.0
41.715624608,2044.0
41.732335877,2014.0
41.749047146,1981.0
41.765758415,2042.0
41.782469684,1978.0
41.799180953,2032.0
41.815892222,2019.0
41.832603491,1972.0
41.849314760,2029.0
41.866026029,2057.0
41.882737298,2046.0
41.899448567,2047.0
41.916159836,2053.0
41.932871105,2025.0
41.949582374,2002.0
41.966293643,2032.0
41.983004912,2065.0
41.999716181,1991.0
42.016427450,1968.0
42.033138719,2063.0
42.049849988,2085.0
42.066561257,2105.0
42.083272526,2072.0
42.099983795,2113.0
42.116695064,1978.0
42.133406332,2055.0
42.150117601,2002.0
42.166828870,1925.0
42.183540139,1999.0
42.200251408,2066.0
42.216962677,1975.0
42.233673946,1912.0
42.250385215,1929.0
42.267096484,1965.0
42.283807753,1971.0
42.300519022,2033.0
42.317230291,2032.0
42.333941560,2030.0
42.350652829,2031.0
42.367364098,1986.0
42.384075367,2010.0
42.400786636,2135.0
42.417497905,1946.0
42.434209174,1985.0
42.450920443,1907.0
42.467631712,1972.0
42.484342981,2035.0
42.501054250,2018.0
42.517765519,1945.0
42.534476788,2023.0
42.551188057,1963.0
42.567899326,2132.0
42.584610595,2070.0
42.601321864,2029.0
42.618033133,1992.0
42.634744402,2056.0
42.651455671,1965.0
42.668166940,1970.0
42.684878209,1993.0
42.701589478,2017.0
42.718300747,2040.0
42.735012016,1985.0
42.751723285,2058.0
42.768434554,2029.0
42.785145823,1991.0
42.801857092,2119.0
42.818568361,2104.0
42.835279630,2065.0
42.851990899,2118.0
42.868702168,2114.0
42.885413436,2043.0
42.902124705,2009.0
42.918835974,2053.0
42.935547243,2076.0
42.952258512,2083.0
42.968969781,2028.0
42.985681050,2138.0
43.002392319,2053.0
43.019103588,2051.0
43.035814857,2070.0
43.052526126,2023.0
43.069237395,2115.0
43.085948664,2172.0
43.102659933,2062.0
43.119371202,2127.0
43.136082471,2102.0
43.152793740,2152.0
43.169505009,2121.0
43.186216278,2011.0
43.202927547,2111.0
43.219638816,2098.0
43.236350085,2073.0
43.253061354,2129.0
43.269772623,2176.0
43.286483892,2134.0
43.303195161,2104.0
43.319906430,2083.0
43.336617699,2159.0
43.353328968,2129.0
43.370040237,2192.0
43.386751506,2180.0
43.403462775,2227.0
43.420174044,2196.0
43.436885313,2219.0
43.453596582,2205.0
43.470307851,2295.0
43.487019120,2311.0
43.503730389,2229.0
43.520441658,2205.0
43.537152927,2169.0
43.553864196,2306.0
43.570575465,2317.0
43.587286734,2227.0
43.603998003,2367.0
43.620709272,2320.0
43.637420541,2346.0
43.654131809,2424.0
43.670843078,2356.0
43.687554347,2327.0
43.704265616,2513.0
43.720976885,2537.0
43.737688154,2520.0
43.754399423,2593.0
43.771110692,2619.0
43.787821961,2518.0
43.804533230,2752.0
43.821244499,2757.0
43.837955768,2839.0
43.854667037,2938.0
43.871378306,2946.0
43.888089575,3075.0
43.904800844,3054.0
43.921512113,3159.0
43.938223382,3333.0
43.954934651,3409.0
43.971645920,3500.0
43.988357189,3640.0
44.005068458,3791.0
44.021779727,4048.0
44.038490996,4087.0
44.055202265,4183.0
44.071913534,4370.0
44.088624803,4564.0
44.105336072,4871.0
44.122047341,5009.0
44.138758610,5244.0
44.155469879,5561.0
44.172181148,6131.0
44.188892417,6467.0
44.205603686,6872.0
44.222314955,7199.0
44.239026224,7766.0
44.255737493,8249.0
44.272448762,8660.0
44.289160031,9200.0
44.305871300,9435.0
44.322582569,9856.0
44.339293838,10029.0
44.356005107,10173.0
44.372716376,10062.0
44.389427645,10078.0
44.406138913,9814.0
44.422850182,9054.0
44.439561451,8653.0
44.456272720,8246.0
44.472983989,7562.0
44.489695258,7002.0
44.506406527,6385.0
44.523117796,5800.0
44.539829065,5387.0
44.556540334,4909.0
44.573251603,4376.0
44.589962872,4088.0
44.606674141,3738.0
44.623385410,3511.0
44.640096679,3238.0
44.656807948,2891.0
44.673519217,2919.0
44.690230486,2748.0
44.706941755,2766.0
44.723653024,2536.0
44.740364293,2540.0
44.757075562,2449.0
44.773786831,2498.0
44.790498100,2412.0
44.807209369,2451.0
44.823920638,2332.0
44.840631907,2318.0
44.857343176,2237.0
44.874054445,2204.0
44.890765714,2233.0
44.907476983,2215.0
44.924188252,2192.0
44.940899521,2177.0
44.957610790,2221.0
44.974322059,2168.0
44.991033328,2161.0
45.007744597,2121.0
45.024455866,2114.0
45.041167135,2144.0
45.057878404,2176.0
45.074589673,2145.0
45.091300942,2161.0
45.108012211,2217.0
45.124723480,2151.0
45.141434749,2170.0
45.158146018,2251.0
45.174857286,2064.0
45.191568555,2155.0
45.208279824,2194.0
45.224991093,2077.0
45.241702362,2209.0
45.258413631,2105.0
45.275124900,2145.0
45.291836169,2121.0
45.308547438,2166.0
45.325258707,2178.0
45.341969976,2155.0
45.358681245,2081.0
45.375392514,2246.0
45.392103783,2151.0
45.408815052,2299.0
45.425526321,2165.0
45.442237590,2230.0
45.458948859,2140.0
45.475660128,2218.0
45.492371397,2353.0
45.509082666,2142.0
45.525793935,2053.0
45.542505204,2108.0
45.559216473,2179.0
45.575927742,2124.0
45.592639011,2096.0
45.609350280,2033.0
45.626061549,2066.0
45.642772818,2134.0
45.659484087,2133.0
45.676195356,2073.0
45.692906625,2111.0
45.709617894,2052.0
45.726329163,2166.0
45.743040432,2010.0
45.759751701,2053.0
45.776462970,1969.0
45.793174239,2082.0
45.809885508,2212.0
45.826596777,2150.0
45.843308046,2120.0
45.860019315,2121.0
45.876730584,2151.0
45.893441853,2203.0
45.910153122,2102.0
45.926864390,2119.0
45.943575659,2164.0
45.960286928,2228.0
45.976998197,2179.0
45.993709466,2210.0
46.010420735,2443.0
46.027132004,2533.0
46.043843273,2561.0
46.060554542,2637.0
46.077265811,2704.0
46.093977080,2890.0
46.110688349,3055.0
46.127399618,3324.0
46.144110887,3556.0
46.160822156,4068.0
46.177533425,4809.0
46.194244694,5237.0
46.210955963,6155.0
46.227667232,7791.0
46.244378501,8360.0
46.261089770,6273.0
46.277801039,4544.0
46.294512308,3948.0
46.311223577,3933.0
46.327934846,4174.0
46.344646115,4973.0
46.361357384,5333.0
46.378068653,4656.0
46.394779922,3643.0
46.411491191,3105.0
46.428202460,2945.0
46.444913729,2922.0
46.461624998,2935.0
46.478336267,3145.0
46.495047536,3236.0
46.511758805,3315.0
46.528470074,3467.0
46.545181343,3512.0
46.561892612,3539.0
46.578603881,3669.0
46.595315150,3617.0
46.612026419,3608.0
46.628737688,3610.0
46.645448957,3579.0
46.662160226,3490.0
46.678871495,3243.0
46.695582763,3156.0
46.712294032,3023.0
46.729005301,2925.0
46.745716570,2835.0
46.762427839,2675.0
46.779139108,2648.0
46.795850377,2469.0
46.812561646,2339.0
46.829272915,2218.0
46.845984184,2183.0
46.862695453,2077.0
46.879406722,2028.0
46.896117991,2012.0
46.912829260,2006.0
46.929540529,2021.0
46.946251798,2084.0
46.962963067,1900.0
46.979674336,2038.0
46.996385605,1983.0
47.013096874,2052.0
47.029808143,1955.0
47.046519412,1970.0
47.063230681,1955.0
47.079941950,2011.0
47.096653219,1910.0
47.113364488,1973.0
47.130075757,1936.0
47.146787026,1931.0
47.163498295,1926.0
47.180209564,1893.0
47.196920833,1867.0
47.213632102,1968.0
47.230343371,1955.0
47.247054640,1931.0
47.263765909,1963.0
47.280477178,2005.0
47.297188447,1899.0
47.313899716,2008.0
47.330610985,2024.0
47.347322254,1926.0
47.364033523,1992.0
47.380744792,1956.0
47.397456061,1905.0
47.414167330,1980.0
47.430878599,1971.0
47.447589867,1890.0
47.464301136,1912.0
47.481012405,1955.0
47.497723674,1937.0
47.514434943,1903.0
47.531146212,1996.0
47.547857481,1937.0
47.564568750,2049.0
47.581280019,1853.0
47.597991288,1944.0
47.614702557,1886.0
47.631413826,1913.0
47.648125095,1969.0
47.664836364,1905.0
47.681547633,1925.0
47.698258902,1917.0
47.714970171,1945.0
47.731681440,2003.0
47.748392709,2011.0
47.765103978,1963.0
47.781815247,1987.0
47.798526516,1949.0
47.815237785,1915.0
47.831949054,1948.0
47.848660323,1887.0
47.865371592,1931.0
47.882082861,1964.0
47.898794130,1962.0
47.915505399,1916.0
47.932216668,1905.0
47.948927937,1909.0
47.965639206,1893.0
47.982350475,1915.0
47.999061744,1902.0
48.015773013,1910.0
48.032484282,1843.0
48.049195551,1869.0
48.065906820,1933.0
48.082618089,1935.0
48.099329358,1966.0
48.116040627,1815.0
48.132751896,1870.0
48.149463165,1923.0
48.166174434,1896.0
48.182885703,1893.0
48.199596972,1885.0
48.216308240,1974.0
48.233019509,1850.0
48.249730778,1980.0
48.266442047,1942.0
48.283153316,1864.0
48.299864585,1932.0
48.316575854,1913.0
48.333287123,1944.0
48.349998392,1931.0
48.366709661,1960.0
48.383420930,1840.0
48.400132199,1925.0
48.416843468,1839.0
48.433554737,1957.0
48.450266006,1952.0
48.466977275,1792.0
48.483688544,1942.0
48.500399813,1827.0
48.517111082,1902.0
48.533822351,1850.0
48.550533620,1904.0
48.567244889,1871.0
48.583956158,1956.0
48.600667427,2008.0
48.617378696,1847.0
48.634089965,1957.0
48.650801234,1889.0
48.667512503,1900.0
48.684223772,1879.0
48.700935041,1933.0
48.717646310,1905.0
48.734357579,1855.0
48.751068848,1945.0
48.767780117,1864.0
48.784491386,1841.0
48.801202655,1922.0
48.817913924,1923.0
48.834625193,1859.0
48.851336462,1809.0
48.868047731,1955.0
48.884759000,1858.0
48.901470269,1919.0
48.918181538,1955.0
48.934892807,1957.0
48.951604076,1948.0
48.968315344,1766.0
48.985026613,1834.0
49.001737882,1924.0
49.018449151,1852.0
49.035160420,1848.0
49.051871689,1896.0
49.068582958,1908.0
49.085294227,1854.0
49.102005496,1833.0
49.118716765,1995.0
49.135428034,1850.0
49.152139303,1914.0
49.168850572,1927.0
49.185561841,1962.0
49.202273110,1886.0
49.218984379,1944.0
49.235695648,1897.0
49.252406917,1879.0
49.269118186,1967.0
49.285829455,2011.0
49.302540724,1952.0
49.319251993,1915.0
49.335963262,1928.0
49.352674531,1928.0
49.369385800,1978.0
49.386097069,1951.0
49.402808338,1917.0
49.419519607,1943.0
49.436230876,1998.0
49.452942145,2006.0
49.469653414,2048.0
49.486364683,2026.0
49.503075952,2093.0
49.519787221,2079.0
49.536498490,2089.0
49.553209759,1983.0
49.569921028,2034.0
49.586632297,2065.0
49.603343566,1987.0
49.620054835,2013.0
49.636766104,1999.0
49.653477373,1993.0
49.670188642,2007.0
49.686899911,1912.0
49.703611180,1999.0
49.720322449,1965.0
49.737033717,1919.0
49.753744986,1969.0
49.770456255,1883.0
49.787167524,1792.0
49.803878793,1901.0
49.820590062,1853.0
49.837301331,1883.0
49.854012600,1875.0
49.870723869,1810.0
49.887435138,1824.0
49.904146407,1849.0
49.920857676,1914.0
49.937568945,1895.0
49.954280214,1933.0
49.970991483,1865.0
49.987702752,1976.0
50.004414021,1896.0
50.021125290,1896.0
50.037836559,2009.0
50.054547828,1912.0
50.071259097,1964.0
50.087970366,1890.0
50.104681635,1899.0
50.121392904,1938.0
50.138104173,1866.0
50.154815442,1886.0
50.171526711,1970.0
50.188237980,1947.0
50.204949249,1908.0
50.221660518,1900.0
50.238371787,1995.0
50.255083056,2016.0
50.271794325,1988.0
50.288505594,1994.0
50.305216863,2070.0
50.321928132,2110.0
50.338639401,2115.0
50.355350670,2138.0
50.372061939,2185.0
50.388773208,2244.0
50.405484477,2163.0
50.422195746,2269.0
50.438907015,2314.0
50.455618284,2387.0
50.472329553,2341.0
50.489040821,2337.0
50.505752090,2370.0
50.522463359,2320.0
50.539174628,2368.0
50.555885897,2255.0
50.572597166,2264.0
50.589308435,2261.0
50.606019704,2246.0
50.622730973,2205.0
50.639442242,2256.0
50.656153511,2189.0
50.672864780,2169.0
50.689576049,2133.0
50.706287318,2071.0
50.722998587,2127.0
50.739709856,2050.0
50.756421125,2077.0
50.773132394,2096.0
50.789843663,1939.0
50.806554932,2052.0
50.823266201,2065.0
50.839977470,2110.0
50.856688739,2036.0
50.873400008,2032.0
50.890111277,2018.0
50.906822546,2013.0
50.923533815,2050.0
50.940245084,2080.0
50.956956353,2018.0
50.973667622,2070.0
50.990378891,2076.0
51.007090160,2076.0
51.023801429,2032.0
51.040512698,2148.0
51.057223967,2104.0
51.073935236,2098.0
51.090646505,2098.0
51.107357774,2166.0
51.124069043,2168.0
51.140780312,2141.0
51.157491581,2157.0
51.174202850,2259.0
51.190914119,2266.0
51.207625388,2259.0
51.224336657,2248.0
51.241047926,2319.0
51.257759194,2297.0
51.274470463,2398.0
51.291181732,2425.0
51.307893001,2461.0
51.324604270,2534.0
51.341315539,2657.0
51.358026808,2751.0
51.374738077,2806.0
51.391449346,3005.0
51.408160615,2819.0
51.424871884,2969.0
51.441583153,3056.0
51.458294422,3161.0
51.475005691,3286.0
51.491716960,3492.0
51.508428229,3472.0
51.525139498,3687.0
51.541850767,3746.0
51.558562036,3910.0
51.575273305,4003.0
51.591984574,4136.0
51.608695843,4204.0
51.625407112,4176.0
51.642118381,4428.0
51.658829650,4358.0
51.675540919,4447.0
51.692252188,4460.0
51.708963457,4344.0
51.725674726,4383.0
51.742385995,4131.0
51.759097264,4094.0
51.775808533,3899.0
51.792519802,3731.0
51.809231071,3603.0
51.825942340,3470.0
51.842653609,3407.0
51.859364878,3308.0
51.876076147,3211.0
51.892787416,3023.0
51.909498685,2910.0
51.926209954,2844.0
51.942921223,2665.0
51.959632492,2569.0
51.976343761,2494.0
51.993055030,2461.0
52.009766299,2317.0
52.026477567,2205.0
52.043188836,2331.0
52.059900105,2292.0
52.076611374,2170.0
52.093322643,2194.0
52.110033912,2284.0
52.126745181,2148.0
52.143456450,2100.0
52.160167719,2025.0
52.176878988,2047.0
52.193590257,2084.0
52.210301526,2026.0
52.227012795,2080.0
52.243724064,1968.0
52.260435333,2026.0
52.277146602,2026.0
52.293857871,1962.0
52.310569140,1935.0
52.327280409,1915.0
52.343991678,1946.0
52.360702947,1956.0
52.377414216,1874.0
52.394125485,1949.0
52.410836754,2035.0
52.427548023,1968.0
52.444259292,1898.0
52.460970561,1895.0
52.477681830,1834.0
52.494393099,1891.0
52.511104368,1810.0
52.527815637,1847.0
52.544526906,1940.0
52.561238175,1902.0
52.577949444,2015.0
52.594660713,1934.0
52.611371982,1874.0
52.628083251,1968.0
52.644794520,1791.0
52.661505789,1864.0
52.678217058,1863.0
52.694928327,1866.0
52.711639596,1798.0
52.728350865,1936.0
52.745062134,1809.0
52.761773403,1846.0
52.778484671,1885.0
52.795195940,1779.0
52.811907209,1829.0
52.828618478,1805.0
52.845329747,1880.0
52.862041016,1859.0
52.878752285,1826.0
52.895463554,1780.0
52.912174823,1858.0
52.928886092,1862.0
52.945597361,1839.0
52.962308630,1812.0
52.979019899,1797.0
52.995731168,1942.0
53.012442437,1781.0
53.029153706,1799.0
53.045864975,1807.0
53.062576244,1839.0
53.079287513,1850.0
53.095998782,1785.0
53.112710051,1833.0
53.129421320,1831.0
53.146132589,1868.0
53.162843858,1855.0
53.179555127,1826.0
53.196266396,1725.0
53.212977665,1813.0
53.229688934,1767.0
53.246400203,1879.0
53.263111472,1792.0
53.279822741,1793.0
53.296534010,1890.0
53.313245279,1827.0
53.329956548,1931.0
53.346667817,1820.0
53.363379086,1792.0
53.380090355,1852.0
53.396801624,1833.0
53.413512893,1778.0
53.430224162,1798.0
53.446935431,1829.0
53.463646700,1847.0
53.480357969,1840.0
53.497069238,1821.0
53.513780507,1822.0
53.530491776,1782.0
53.547203044,1769.0
53.563914313,1898.0
53.580625582,1833.0
53.597336851,1753.0
53.614048120,1809.0
53.630759389,1831.0
53.647470658,1884.0
53.664181927,1781.0
53.680893196,1760.0
53.697604465,1808.0
53.714315734,1790.0
53.731027003,1886.0
53.747738272,1843.0
53.764449541,1820.0
53.781160810,1794.0
53.797872079,1831.0
53.814583348,1802.0
53.831294617,1863.0
53.848005886,1865.0
53.864717155,1762.0
53.881428424,1749.0
53.898139693,1822.0
53.914850962,1798.0
53.931562231,1833.0
53.948273500,1835.0
53.964984769,1801.0
53.981696038,1835.0
53.998407307,1783.0
54.015118576,1799.0
54.031829845,1776.0
54.048541114,1827.0
54.065252383,1890.0
54.081963652,1835.0
54.098674921,1722.0
54.115386190,1753.0
54.132097459,1781.0
54.148808728,1777.0
54.165519997,1743.0
54.182231266,1824.0
54.198942535,1758.0
54.215653804,1748.0
54.232365073,1722.0
54.249076342,1801.0
54.265787611,1830.0
54.282498880,1771.0
54.299210148,1796.0
54.315921417,1802.0
54.332632686,1816.0
54.349343955,1741.0
54.366055224,1740.0
54.382766493,1811.0
54.399477762,1749.0
54.416189031,1852.0
54.432900300,1880.0
54.449611569,1810.0
54.466322838,1775.0
54.483034107,1748.0
54.499745376,1720.0
54.516456645,1825.0
54.533167914,1739.0
54.549879183,1772.0
54.566590452,1908.0
54.583301721,1761.0
54.600012990,1738.0
54.616724259,1800.0
54.633435528,1783.0
54.650146797,1753.0
54.666858066,1747.0
54.683569335,1728.0
54.700280604,1822.0
54.716991873,1790.0
54.733703142,1934.0
54.750414411,1802.0
54.767125680,1833.0
54.783836949,1812.0
54.800548218,1745.0
54.817259487,1773.0
54.833970756,1751.0
54.850682025,1873.0
54.867393294,1815.0
54.884104563,1790.0
54.900815832,1757.0
54.917527101,1765.0
54.934238370,1773.0
54.950949639,1788.0
54.967660908,1829.0
54.984372177,1801.0
55.001083446,1736.0
55.017794715,1787.0
55.034505984,1718.0
55.051217253,1771.0
55.067928521,1805.0
55.084639790,1830.0
55.101351059,1729.0
55.118062328,1785.0
55.134773597,1751.0
55.151484866,1795.0
55.168196135,1728.0
55.184907404,1796.0
55.201618673,1866.0
55.218329942,1854.0
55.235041211,1846.0
55.251752480,1753.0
55.268463749,1828.0
55.285175018,1724.0
55.301886287,1799.0
55.318597556,1720.0
55.335308825,1752.0
55.352020094,1827.0
55.368731363,1785.0
55.385442632,1769.0
55.402153901,1761.0
55.418865170,1799.0
55.435576439,1747.0
55.452287708,1802.0
55.468998977,1663.0
55.485710246,1721.0
55.502421515,1713.0
55.519132784,1838.0
55.535844053,1716.0
55.552555322,1803.0
55.569266591,1738.0
55.585977860,1753.0
55.602689129,1814.0
55.619400398,1737.0
55.636111667,1723.0
55.652822936,1775.0
55.669534205,1750.0
55.686245474,1785.0
55.702956743,1768.0
55.719668012,1828.0
55.736379281,1736.0
55.753090550,1807.0
55.769801819,1844.0
55.786513088,1755.0
55.803224357,1810.0
55.819935625,1753.0
55.836646894,1783.0
55.853358163,1704.0
55.870069432,1717.0
55.886780701,1727.0
55.903491970,1775.0
55.920203239,1766.0
55.936914508,1813.0
55.953625777,1712.0
55.970337046,1740.0
55.987048315,1787.0
56.003759584,1734.0
56.020470853,1791.0
56.037182122,1764.0
56.053893391,1702.0
56.070604660,1847.0
56.087315929,1748.0
56.104027198,1728.0
56.120738467,1645.0
56.137449736,1725.0
56.154161005,1784.0
56.170872274,1777.0
56.187583543,1772.0
56.204294812,1796.0
56.221006081,1785.0
56.237717350,1735.0
56.254428619,1773.0
56.271139888,1747.0
56.287851157,1784.0
56.304562426,1841.0
56.321273695,1760.0
56.337984964,1816.0
56.354696233,1728.0
56.371407502,1850.0
56.388118771,1716.0
56.404830040,1865.0
56.421541309,1777.0
56.438252578,1823.0
56.454963847,1847.0
56.471675116,1778.0
56.488386385,1748.0
56.505097654,1753.0
56.521808923,1805.0
56.538520192,1762.0
56.555231461,1775.0
56.571942730,1813.0
56.588653998,1754.0
56.605365267,1826.0
56.622076536,1658.0
56.638787805,1799.0
56.655499074,1828.0
56.672210343,1791.0
56.688921612,1733.0
56.705632881,1797.0
56.722344150,1813.0
56.739055419,1737.0
56.755766688,1731.0
56.772477957,1710.0
56.789189226,1815.0
56.805900495,1612.0
56.822611764,1840.0
56.839323033,1758.0
56.856034302,1822.0
56.872745571,1754.0
56.889456840,1679.0
56.906168109,1689.0
56.922879378,1772.0
56.939590647,1797.0
56.956301916,1737.0
56.973013185,1719.0
56.989724454,1754.0
57.006435723,1750.0
57.023146992,1751.0
57.039858261,1725.0
57.056569530,1722.0
57.073280799,1774.0
57.089992068,1860.0
57.106703337,1774.0
57.123414606,1796.0
57.140125875,1766.0
57.156837144,1671.0
57.173548413,1761.0
57.190259682,1731.0
57.206970951,1745.0
57.223682220,1796.0
57.240393489,1758.0
57.257104758,1690.0
57.273816027,1796.0
57.290527296,1849.0
57.307238565,1718.0
57.323949834,1797.0
57.340661102,1741.0
57.357372371,1808.0
57.374083640,1780.0
57.390794909,1726.0
57.407506178,1715.0
57.424217447,1773.0
57.440928716,1782.0
57.457639985,1819.0
57.474351254,1785.0
57.491062523,1777.0
57.507773792,1698.0
57.524485061,1684.0
57.541196330,1749.0
57.557907599,1692.0
57.574618868,1695.0
57.591330137,1740.0
57.608041406,1741.0
57.624752675,1770.0
57.641463944,1753.0
57.658175213,1851.0
57.674886482,1765.0
57.691597751,1835.0
57.708309020,1735.0
57.725020289,1788.0
57.741731558,1794.0
57.758442827,1754.0
57.775154096,1863.0
57.791865365,1806.0
57.808576634,1709.0
57.825287903,1764.0
57.841999172,1775.0
57.858710441,1805.0
57.875421710,1733.0
57.892132979,1757.0
57.908844248,1827.0
57.925555517,1802.0
57.942266786,1779.0
57.958978055,1841.0
57.975689324,1724.0
57.992400593,1762.0
58.009111862,1796.0
58.025823131,1794.0
58.042534400,1712.0
58.059245669,1728.0
58.075956938,1758.0
58.092668207,1790.0
58.109379475,1679.0
58.126090744,1723.0
58.142802013,1794.0
58.159513282,1724.0
58.176224551,1824.0
58.192935820,1709.0
58.209647089,1774.0
58.226358358,1791.0
58.243069627,1725.0
58.259780896,1823.0
58.276492165,1655.0
58.293203434,1712.0
58.309914703,1804.0
58.326625972,1778.0
58.343337241,1773.0
58.360048510,1693.0
58.376759779,1727.0
58.393471048,1720.0
58.410182317,1748.0
58.426893586,1724.0
58.443604855,1791.0
58.460316124,1802.0
58.477027393,1740.0
58.493738662,1702.0
58.510449931,1810.0
58.527161200,1734.0
58.543872469,1734.0
58.560583738,1774.0
58.577295007,1853.0
58.594006276,1781.0
58.610717545,1739.0
58.627428814,1732.0
58.644140083,1805.0
58.660851352,1723.0
58.677562621,1724.0
58.694273890,1803.0
58.710985159,1694.0
58.727696428,1678.0
58.744407697,1794.0
58.761118966,1779.0
58.777830235,1782.0
58.794541504,1798.0
58.811252773,1754.0
58.827964042,1634.0
58.844675311,1812.0
58.861386579,1725.0
58.878097848,1836.0
58.894809117,1779.0
58.911520386,1812.0
58.928231655,1735.0
58.944942924,1762.0
58.961654193,1792.0
58.978365462,1670.0
58.995076731,1748.0
59.011788000,1790.0
59.028499269,1759.0
59.045210538,1758.0
59.061921807,1657.0
59.078633076,1724.0
59.095344345,1714.0
59.112055614,1705.0
59.128766883,1781.0
59.145478152,1797.0
59.162189421,1820.0
59.178900690,1738.0
59.195611959,1765.0
59.212323228,1843.0
59.229034497,1775.0
59.245745766,1805.0
59.262457035,1783.0
59.279168304,1753.0
59.295879573,1711.0
59.312590842,1792.0
59.329302111,1743.0
59.346013380,1753.0
59.362724649,1808.0
59.379435918,1834.0
59.396147187,1747.0
59.412858456,1764.0
59.429569725,1745.0
59.446280994,1748.0
59.462992263,1819.0
59.479703532,1694.0
59.496414801,1793.0
59.513126070,1802.0
59.529837339,1792.0
59.546548608,1821.0
59.563259877,1832.0
59.579971146,1782.0
59.596682415,1760.0
59.613393684,1800.0
59.630104952,1769.0
59.646816221,1745.0
59.663527490,1808.0
59.680238759,1802.0
59.696950028,1681.0
59.713661297,1794.0
59.730372566,1792.0
59.747083835,1702.0
59.763795104,1807.0
59.780506373,1769.0
59.797217642,1717.0
59.813928911,1771.0
59.830640180,1756.0
59.847351449,1769.0
59.864062718,1755.0
59.880773987,1799.0
59.897485256,1681.0
59.914196525,1848.0
59.930907794,1770.0
59.947619063,1825.0
59.964330332,1679.0
59.981041601,1700.0
59.997752870,1773.0
60.014464139,1748.0
60.031175408,1696.0
60.047886677,1765.0
60.064597946,1725.0
60.081309215,1749.0
60.098020484,1749.0
60.114731753,1824.0
60.131443022,1745.0
60.148154291,1801.0
60.164865560,1737.0
60.181576829,1735.0
60.198288098,1796.0
60.214999367,1745.0
60.231710636,1854.0
60.248421905,1793.0
60.265133174,1769.0
60.281844443,1742.0
60.298555712,1821.0
60.315266981,1713.0
60.331978250,1770.0
60.348689519,1732.0
60.365400788,1789.0
60.382112056,1754.0
60.398823325,1724.0
60.415534594,1807.0
60.432245863,1812.0
60.448957132,1767.0
60.465668401,1765.0
60.482379670,1734.0
60.499090939,1763.0
60.515802208,1763.0
60.532513477,1826.0
60.549224746,1752.0
60.565936015,1723.0
60.582647284,1802.0
60.599358553,1754.0
60.616069822,1818.0
60.632781091,1830.0
60.649492360,1859.0
60.666203629,1793.0
60.682914898,1843.0
60.699626167,1801.0
60.716337436,1856.0
60.733048705,1733.0
60.749759974,1757.0
60.766471243,1750.0
60.783182512,1891.0
60.799893781,1752.0
60.816605050,1758.0
60.833316319,1806.0
60.850027588,1812.0
60.866738857,1787.0
60.883450126,1677.0
60.900161395,1813.0
60.916872664,1784.0
60.933583933,1814.0
60.950295202,1787.0
60.967006471,1816.0
60.983717740,1784.0
61.000429009,1759.0
61.017140278,1837.0
61.033851547,1722.0
61.050562816,1796.0
61.067274085,1822.0
61.083985354,1698.0
61.100696623,1906.0
61.117407892,1745.0
61.134119161,1738.0
61.150830429,1855.0
61.167541698,1872.0
61.184252967,1853.0
61.200964236,1751.0
61.217675505,1861.0
61.234386774,1840.0
61.251098043,1786.0
61.267809312,1798.0
61.284520581,1787.0
61.301231850,1777.0
61.317943119,1857.0
61.334654388,1858.0
61.351365657,1797.0
61.368076926,1754.0
61.384788195,1809.0
61.401499464,1781.0
61.418210733,1744.0
61.434922002,1806.0
61.451633271,1776.0
61.468344540,1835.0
61.485055809,1773.0
61.501767078,1761.0
61.518478347,1724.0
61.535189616,1766.0
61.551900885,1770.0
61.568612154,1768.0
61.585323423,1820.0
61.602034692,1739.0
61.618745961,1823.0
61.635457230,1833.0
61.652168499,1872.0
61.668879768,1851.0
61.685591037,1830.0
61.702302306,1806.0
61.719013575,1786.0
61.735724844,1766.0
61.752436113,1801.0
61.769147382,1842.0
61.785858651,1847.0
61.802569920,1842.0
61.819281189,1802.0
61.835992458,1847.0
61.852703727,1861.0
61.869414996,1873.0
61.886126265,1828.0
61.902837533,1787.0
61.919548802,1783.0
61.936260071,1737.0
61.952971340,1822.0
61.969682609,1885.0
61.986393878,1748.0
62.003105147,1880.0
62.019816416,1803.0
62.036527685,1881.0
62.053238954,1847.0
62.069950223,1906.0
62.086661492,1803.0
62.103372761,1959.0
62.120084030,1903.0
62.136795299,1828.0
62.153506568,1792.0
62.170217837,1869.0
62.186929106,1782.0
62.203640375,1764.0
62.220351644,1813.0
62.237062913,1767.0
62.253774182,1872.0
62.270485451,1783.0
62.287196720,1894.0
62.303907989,1850.0
62.320619258,1892.0
62.337330527,1800.0
62.354041796,1801.0
62.370753065,1810.0
62.387464334,1804.0
62.404175603,1803.0
62.420886872,1856.0
62.437598141,1723.0
62.454309410,1831.0
62.471020679,1850.0
62.487731948,1834.0
62.504443217,1881.0
62.521154486,1802.0
62.537865755,1864.0
62.554577024,1850.0
62.571288293,1947.0
62.587999562,1840.0
62.604710831,1876.0
62.621422100,1777.0
62.638133369,1839.0
62.654844638,1944.0
62.671555906,1844.0
62.688267175,1837.0
62.704978444,1855.0
62.721689713,1852.0
62.738400982,1868.0
62.755112251,1817.0
62.771823520,1753.0
62.788534789,1908.0
62.805246058,1867.0
62.821957327,1829.0
62.838668596,1886.0
62.855379865,1874.0
62.872091134,1866.0
62.888802403,1846.0
62.905513672,1901.0
62.922224941,1834.0
62.938936210,1854.0
62.955647479,1858.0
62.972358748,1886.0
62.989070017,1828.0
63.005781286,1833.0
63.022492555,1812.0
63.039203824,1810.0
63.055915093,1767.0
63.072626362,1854.0
63.089337631,1800.0
63.106048900,1829.0
63.122760169,1816.0
63.139471438,1894.0
63.156182707,1817.0
63.172893976,1868.0
63.189605245,1879.0
63.206316514,1856.0
63.223027783,1957.0
63.239739052,1794.0
63.256450321,1957.0
63.273161590,1951.0
63.289872859,1757.0
63.306584128,1824.0
63.323295397,1820.0
63.340006666,1857.0
63.356717935,1874.0
63.373429204,1963.0
63.390140473,1883.0
63.406851742,1830.0
63.423563010,1939.0
63.440274279,1949.0
63.456985548,1900.0
63.473696817,1847.0
63.490408086,1906.0
63.507119355,1942.0
63.523830624,1845.0
63.540541893,1878.0
63.557253162,1924.0
63.573964431,1832.0
63.590675700,1908.0
63.607386969,1969.0
63.624098238,1811.0
63.640809507,1819.0
63.657520776,1909.0
63.674232045,1899.0
63.690943314,1862.0
63.707654583,1963.0
63.724365852,1921.0
63.741077121,1834.0
63.757788390,1937.0
63.774499659,1862.0
63.791210928,1914.0
63.807922197,1854.0
63.824633466,1935.0
63.841344735,1896.0
63.858056004,1761.0
63.874767273,1854.0
63.891478542,1869.0
63.908189811,1838.0
63.924901080,1864.0
63.941612349,1927.0
63.958323618,1907.0
63.975034887,1909.0
63.991746156,1889.0
64.008457425,1932.0
64.025168694,1877.0
64.041879963,1830.0
64.058591232,1910.0
64.075302501,1872.0
64.092013770,1909.0
64.108725039,1902.0
64.125436308,1943.0
64.142147577,1862.0
64.158858846,1928.0
64.175570115,1857.0
64.192281383,1886.0
64.208992652,1904.0
64.225703921,1862.0
64.242415190,1968.0
64.259126459,1886.0
64.275837728,1913.0
64.292548997,1881.0
64.309260266,1933.0
64.325971535,1893.0
64.342682804,1835.0
64.359394073,1901.0
64.376105342,1929.0
64.392816611,1812.0
64.409527880,1985.0
64.426239149,1885.0
64.442950418,1867.0
64.459661687,1924.0
64.476372956,2030.0
64.493084225,1962.0
64.509795494,1915.0
64.526506763,1926.0
64.543218032,1914.0
64.559929301,1952.0
64.576640570,2010.0
64.593351839,1862.0
64.610063108,1933.0
64.626774377,1921.0
64.643485646,1915.0
64.660196915,1942.0
64.676908184,1893.0
64.693619453,1892.0
64.710330722,1852.0
64.727041991,1810.0
64.743753260,1943.0
64.760464529,1905.0
64.777175798,1825.0
64.793887067,1922.0
64.810598336,1910.0
64.827309605,1887.0
64.844020874,1922.0
64.860732143,1952.0
64.877443412,1882.0
64.894154681,1914.0
64.910865950,1979.0
64.927577219,1960.0
64.944288487,1798.0
64.960999756,1981.0
64.977711025,1886.0
64.994422294,1886.0
65.011133563,1946.0
65.027844832,1926.0
65.044556101,2004.0
65.061267370,2041.0
65.077978639,1983.0
65.094689908,1963.0
65.111401177,1894.0
65.128112446,1998.0
65.144823715,1923.0
65.161534984,1918.0
65.178246253,2025.0
65.194957522,1873.0
65.211668791,1956.0
65.228380060,1906.0
65.245091329,1949.0
65.261802598,1865.0
65.278513867,1939.0
65.295225136,1886.0
65.311936405,1947.0
65.328647674,1856.0
65.345358943,1983.0
65.362070212,1865.0
65.378781481,1901.0
65.395492750,1901.0
65.412204019,1939.0
65.428915288,1992.0
65.445626557,1872.0
65.462337826,1912.0
65.479049095,1857.0
65.495760364,1930.0
65.512471633,1895.0
65.529182902,1939.0
65.545894171,1985.0
65.562605440,1871.0
65.579316709,1966.0
65.596027978,2081.0
65.612739247,2042.0
65.629450516,1926.0
65.646161785,1952.0
65.662873054,1982.0
65.679584323,2049.0
65.696295592,1903.0
65.713006860,1961.0
65.729718129,1936.0
65.746429398,1947.0
65.763140667,1971.0
65.779851936,1923.0
65.796563205,1988.0
65.813274474,1894.0
65.829985743,1964.0
65.846697012,2008.0
65.863408281,1998.0
65.880119550,1908.0
65.896830819,1927.0
65.913542088,2020.0
65.930253357,1912.0
65.946964626,1930.0
65.963675895,2023.0
65.980387164,1938.0
65.997098433,1944.0
66.013809702,2022.0
66.030520971,1895.0
66.047232240,1943.0
66.063943509,1968.0
66.080654778,1957.0
66.097366047,1988.0
66.114077316,1913.0
66.130788585,2022.0
66.147499854,2055.0
66.164211123,1963.0
66.180922392,1931.0
66.197633661,1976.0
66.214344930,1996.0
66.231056199,1874.0
66.247767468,1985.0
66.264478737,1947.0
66.281190006,1852.0
66.297901275,1930.0
66.314612544,1905.0
66.331323813,1976.0
66.348035082,1921.0
66.364746351,2041.0
66.381457620,1998.0
66.398168889,1959.0
66.414880158,1899.0
66.431591427,1936.0
66.448302696,1992.0
66.465013964,2029.0
66.481725233,1952.0
66.498436502,1895.0
66.515147771,1812.0
66.531859040,2006.0
66.548570309,2002.0
66.565281578,1940.0
66.581992847,1954.0
66.598704116,1891.0
66.615415385,1867.0
66.632126654,2040.0
66.648837923,1963.0
66.665549192,2048.0
66.682260461,2009.0
66.698971730,1984.0
66.715682999,1979.0
66.732394268,1958.0
66.749105537,1993.0
66.765816806,1953.0
66.782528075,1953.0
66.799239344,1972.0
66.815950613,2032.0
66.832661882,1986.0
66.849373151,1938.0
66.866084420,1981.0
66.882795689,1943.0
66.899506958,1922.0
66.916218227,2013.0
66.932929496,1891.0
66.949640765,1950.0
66.966352034,1944.0
66.983063303,1930.0
66.999774572,2096.0
67.016485841,1930.0
67.033197110,2000.0
67.049908379,2015.0
67.066619648,1965.0
67.083330917,1977.0
67.100042186,1970.0
67.116753455,2008.0
67.133464724,1915.0
67.150175993,2012.0
67.166887262,2021.0
67.183598531,1961.0
67.200309800,1947.0
67.217021069,2039.0
67.233732337,1949.0
67.250443606,1944.0
67.267154875,1938.0
67.283866144,1893.0
67.300577413,2000.0
67.317288682,1987.0
67.333999951,1911.0
67.350711220,1932.0
67.367422489,2067.0
67.384133758,1907.0
67.400845027,1956.0
67.417556296,1893.0
67.434267565,1914.0
67.450978834,1952.0
67.467690103,1982.0
67.484401372,1961.0
67.501112641,1999.0
67.517823910,1970.0
67.534535179,1972.0
67.551246448,1923.0
67.567957717,1939.0
67.584668986,1982.0
67.601380255,2010.0
67.618091524,1933.0
67.634802793,1984.0
67.651514062,1915.0
67.668225331,1953.0
67.684936600,1919.0
67.701647869,1985.0
67.718359138,1955.0
67.735070407,2033.0
67.751781676,1954.0
67.768492945,1956.0
67.785204214,1931.0
67.801915483,2009.0
67.818626752,1924.0
67.835338021,1966.0
67.852049290,1941.0
67.868760559,1912.0
67.885471828,1874.0
67.902183097,1951.0
67.918894366,1971.0
67.935605635,1981.0
67.952316904,1973.0
67.969028173,2001.0
67.985739441,1908.0
68.002450710,1909.0
68.019161979,1983.0
68.035873248,1997.0
68.052584517,1939.0
68.069295786,1982.0
68.086007055,1955.0
68.102718324,1941.0
68.119429593,1960.0
68.136140862,1954.0
68.152852131,1969.0
68.169563400,2067.0
68.186274669,1998.0
68.202985938,1949.0
68.219697207,1958.0
68.236408476,1949.0
68.253119745,1909.0
68.269831014,1951.0
68.286542283,1932.0
68.303253552,1952.0
68.319964821,2034.0
68.336676090,1999.0
68.353387359,1868.0
68.370098628,1941.0
68.386809897,1931.0
68.403521166,1934.0
68.420232435,1947.0
68.436943704,1900.0
68.453654973,2013.0
68.470366242,2006.0
68.487077511,1918.0
68.503788780,1959.0
68.520500049,1962.0
68.537211318,1956.0
68.553922587,1895.0
68.570633856,1995.0
68.587345125,1867.0
68.604056394,1902.0
68.620767663,1946.0
68.637478932,2038.0
68.654190201,1967.0
68.670901470,1933.0
68.687612739,1928.0
68.704324008,1937.0
68.721035277,1975.0
68.737746546,1883.0
68.754457814,2005.0
68.771169083,1966.0
68.787880352,1902.0
68.804591621,1887.0
68.821302890,1964.0
68.838014159,1964.0
68.854725428,1852.0
68.871436697,1985.0
68.888147966,1980.0
68.904859235,1952.0
68.921570504,1844.0
68.938281773,1936.0
68.954993042,2004.0
68.971704311,2004.0
68.988415580,1942.0
69.005126849,1970.0
69.021838118,1844.0
69.038549387,1959.0
69.055260656,1897.0
69.071971925,2001.0
69.088683194,1883.0
69.105394463,2019.0
69.122105732,1919.0
69.138817001,2012.0
69.155528270,1919.0
69.172239539,1931.0
69.188950808,1903.0
69.205662077,2016.0
69.222373346,1926.0
69.239084615,1992.0
69.255795884,1923.0
69.272507153,1960.0
69.289218422,1929.0
69.305929691,1914.0
69.322640960,1987.0
69.339352229,1924.0
69.356063498,1954.0
69.372774767,1923.0
69.389486036,1898.0
69.406197305,1953.0
69.422908574,1897.0
69.439619843,2053.0
69.456331112,2000.0
69.473042381,1899.0
69.489753650,1893.0
69.506464919,1958.0
69.523176187,1962.0
69.539887456,1872.0
69.556598725,1902.0
69.573309994,1944.0
69.590021263,1964.0
69.606732532,1917.0
69.623443801,1849.0
69.640155070,1966.0
69.656866339,1962.0
69.673577608,1926.0
69.690288877,1942.0
69.707000146,1967.0
69.723711415,1946.0
69.740422684,1898.0
69.757133953,1942.0
69.773845222,1917.0
69.790556491,1860.0
69.807267760,1932.0
69.823979029,1929.0
69.840690298,1928.0
69.857401567,1945.0
69.874112836,1878.0
69.890824105,1905.0
69.907535374,1911.0
69.924246643,1827.0
69.940957912,1771.0
69.957669181,1965.0
69.974380450,1963.0
69.991091719,1896.0
70.007802988,1904.0
70.024514257,1998.0
70.041225526,1858.0
70.057936795,1854.0
70.074648064,1915.0
70.091359333,1900.0
70.108070602,1867.0
70.124781871,1976.0
70.141493140,1958.0
70.158204409,1960.0
70.174915678,1893.0
70.191626947,1895.0
70.208338216,1882.0
70.225049485,1957.0
70.241760754,1897.0
70.258472023,1952.0
70.275183291,1933.0
70.291894560,1872.0
70.308605829,1881.0
70.325317098,1843.0
70.342028367,2000.0
70.358739636,1896.0
70.375450905,1900.0
70.392162174,1789.0
70.408873443,1954.0
70.425584712,1898.0
70.442295981,1928.0
70.459007250,1906.0
70.475718519,1840.0
70.492429788,1887.0
70.509141057,1877.0
70.525852326,1936.0
70.542563595,1919.0
70.559274864,1890.0
70.575986133,1889.0
70.592697402,1881.0
70.609408671,1982.0
70.626119940,1995.0
70.642831209,1952.0
70.659542478,1884.0
70.676253747,1877.0
70.692965016,1905.0
70.709676285,1875.0
70.726387554,1866.0
70.743098823,1933.0
70.759810092,1917.0
70.776521361,1840.0
70.793232630,1892.0
70.809943899,1886.0
70.826655168,1882.0
70.843366437,1822.0
70.860077706,1923.0
70.876788975,1921.0
70.893500244,1871.0
70.910211513,1908.0
70.926922782,1849.0
70.943634051,1922.0
70.960345320,1917.0
70.977056589,1948.0
70.993767858,1825.0
71.010479127,1949.0
71.027190396,1796.0
71.043901664,1884.0
71.060612933,1797.0
71.077324202,1857.0
71.094035471,1844.0
71.110746740,1898.0
71.127458009,1891.0
71.144169278,1899.0
71.160880547,1820.0
71.177591816,1790.0
71.194303085,1839.0
71.211014354,1816.0
71.227725623,1873.0
71.244436892,1865.0
71.261148161,1869.0
71.277859430,1815.0
71.294570699,1895.0
71.311281968,1874.0
71.327993237,1837.0
71.344704506,1838.0
71.361415775,1819.0
71.378127044,1895.0
71.394838313,1855.0
71.411549582,1786.0
71.428260851,1809.0
71.444972120,1907.0
71.461683389,1850.0
71.478394658,1862.0
71.495105927,1815.0
71.511817196,1879.0
71.528528465,1824.0
71.545239734,1873.0
71.561951003,1866.0
71.578662272,1868.0
71.595373541,1914.0
71.612084810,1841.0
71.628796079,1813.0
71.645507348,1883.0
71.662218617,1832.0
71.678929886,1782.0
71.695641155,1865.0
71.712352424,1861.0
71.729063693,1808.0
71.745774962,1821.0
71.762486231,1887.0
71.779197500,1875.0
71.795908768,1814.0
71.812620037,1883.0
71.829331306,1880.0
71.846042575,1846.0
71.862753844,1873.0
71.879465113,1762.0
71.896176382,1799.0
71.912887651,1834.0
71.929598920,1880.0
71.946310189,1840.0
71.963021458,1799.0
71.979732727,1813.0
71.996443996,1827.0
72.013155265,1774.0
72.029866534,1787.0
72.046577803,1825.0
72.063289072,1846.0
72.080000341,1764.0
72.096711610,1767.0
72.113422879,1776.0
72.130134148,1901.0
72.146845417,1810.0
72.163556686,1783.0
72.180267955,1904.0
72.196979224,1813.0
72.213690493,1838.0
72.230401762,1952.0
72.247113031,1742.0
72.263824300,1838.0
72.280535569,1807.0
72.297246838,1710.0
72.313958107,1869.0
72.330669376,1765.0
72.347380645,1762.0
72.364091914,1831.0
72.380803183,1803.0
72.397514452,1744.0
72.414225721,1805.0
72.430936990,1801.0
72.447648259,1781.0
72.464359528,1817.0
72.481070797,1843.0
72.497782066,1707.0
72.514493335,1776.0
72.531204604,1790.0
72.547915873,1836.0
72.564627141,1746.0
72.581338410,1815.0
72.598049679,1793.0
72.614760948,1795.0
72.631472217,1789.0
72.648183486,1819.0
72.664894755,1756.0
72.681606024,1773.0
72.698317293,1844.0
72.715028562,1829.0
72.731739831,1770.0
72.748451100,1804.0
72.765162369,1793.0
72.781873638,1761.0
72.798584907,1730.0
72.815296176,1819.0
72.832007445,1729.0
72.848718714,1841.0
72.865429983,1787.0
72.882141252,1712.0
72.898852521,1823.0
72.915563790,1777.0
72.932275059,1779.0
72.948986328,1839.0
72.965697597,1773.0
72.982408866,1822.0
72.999120135,1805.0
73.015831404,1749.0
73.032542673,1826.0
73.049253942,1829.0
73.065965211,1772.0
73.082676480,1790.0
73.099387749,1836.0
73.116099018,1769.0
73.132810287,1772.0
73.149521556,1746.0
73.166232825,1762.0
73.182944094,1799.0
73.199655363,1761.0
73.216366632,1840.0
73.233077901,1830.0
73.249789170,1722.0
73.266500439,1872.0
73.283211708,1794.0
73.299922977,1862.0
73.316634245,1772.0
73.333345514,1846.0
73.350056783,1710.0
73.366768052,1792.0
73.383479321,1798.0
73.400190590,1740.0
73.416901859,1739.0
73.433613128,1826.0
73.450324397,1717.0
73.467035666,1700.0
73.483746935,1710.0
73.500458204,1823.0
73.517169473,1780.0
73.533880742,1772.0
73.550592011,1767.0
73.567303280,1706.0
73.584014549,1733.0
73.600725818,1733.0
73.617437087,1744.0
73.634148356,1799.0
73.650859625,1773.0
73.667570894,1811.0
73.684282163,1690.0
73.700993432,1778.0
73.717704701,1791.0
73.734415970,1748.0
73.751127239,1745.0
73.767838508,1719.0
73.784549777,1810.0
73.801261046,1721.0
73.817972315,1825.0
73.834683584,1816.0
73.851394853,1749.0
73.868106122,1776.0
73.884817391,1690.0
73.901528660,1670.0
73.918239929,1744.0
73.934951198,1730.0
73.951662467,1696.0
73.968373736,1729.0
73.985085005,1765.0
74.001796274,1681.0
74.018507543,1756.0
74.035218812,1831.0
74.051930081,1676.0
74.068641350,1747.0
74.085352618,1802.0
74.102063887,1705.0
74.118775156,1742.0
74.135486425,1815.0
74.152197694,1704.0
74.168908963,1744.0
74.185620232,1764.0
74.202331501,1680.0
74.219042770,1718.0
74.235754039,1739.0
74.252465308,1687.0
74.269176577,1778.0
74.285887846,1801.0
74.302599115,1796.0
74.319310384,1700.0
74.336021653,1728.0
74.352732922,1810.0
74.369444191,1643.0
74.386155460,1741.0
74.402866729,1676.0
74.419577998,1753.0
74.436289267,1821.0
74.453000536,1660.0
74.469711805,1800.0
74.486423074,1744.0
74.503134343,1714.0
74.519845612,1780.0
74.536556881,1750.0
74.553268150,1701.0
74.569979419,1831.0
74.586690688,1682.0
74.603401957,1594.0
74.620113226,1718.0
74.636824495,1706.0
74.653535764,1714.0
74.670247033,1683.0
74.686958302,1741.0
74.703669571,1749.0
74.720380840,1692.0
74.737092109,1741.0
74.753803378,1713.0
74.770514647,1771.0
74.787225916,1686.0
74.803937185,1688.0
74.820648454,1740.0
74.837359722,1715.0
74.854070991,1736.0
74.870782260,1646.0
74.887493529,1716.0
74.904204798,1715.0
74.920916067,1708.0
74.937627336,1760.0
74.954338605,1690.0
74.971049874,1725.0
74.987761143,1700.0
75.004472412,1785.0
75.021183681,1672.0
75.037894950,1715.0
75.054606219,1684.0
75.071317488,1688.0
75.088028757,1736.0
75.104740026,1721.0
75.121451295,1789.0
75.138162564,1729.0
75.154873833,1779.0
75.171585102,1720.0
75.188296371,1762.0
75.205007640,1741.0
75.221718909,1731.0
75.238430178,1692.0
75.255141447,1717.0
75.271852716,1726.0
75.288563985,1875.0
75.305275254,1805.0
75.321986523,1771.0
75.338697792,1715.0
75.355409061,1785.0
75.372120330,1766.0
75.388831599,1780.0
75.405542868,1767.0
75.422254137,1702.0
75.438965406,1760.0
75.455676675,1805.0
75.472387944,1858.0
75.489099213,1860.0
75.505810482,1742.0
75.522521751,1800.0
75.539233020,1768.0
75.555944289,1876.0
75.572655558,1870.0
75.589366827,1819.0
75.606078095,1779.0
75.622789364,1841.0
75.639500633,1844.0
75.656211902,1924.0
75.672923171,1873.0
75.689634440,1823.0
75.706345709,1911.0
75.723056978,1896.0
75.739768247,1925.0
75.756479516,1929.0
75.773190785,1882.0
75.789902054,1934.0
75.806613323,1967.0
75.823324592,1939.0
75.840035861,1975.0
75.856747130,2003.0
75.873458399,2000.0
75.890169668,2033.0
75.906880937,2102.0
75.923592206,2102.0
75.940303475,2094.0
75.957014744,2161.0
75.973726013,2155.0
75.990437282,2177.0
76.007148551,2178.0
76.023859820,2191.0
76.040571089,2337.0
76.057282358,2363.0
76.073993627,2256.0
76.090704896,2272.0
76.107416165,2367.0
76.124127434,2294.0
76.140838703,2285.0
76.157549972,2263.0
76.174261241,2173.0
76.190972510,2276.0
76.207683779,2274.0
76.224395048,2243.0
76.241106317,2220.0
76.257817586,2158.0
76.274528855,2232.0
76.291240124,2147.0
76.307951393,2070.0
76.324662662,2024.0
76.341373931,2012.0
76.358085199,2086.0
76.374796468,1998.0
76.391507737,1996.0
76.408219006,1898.0
76.424930275,1946.0
76.441641544,1947.0
76.458352813,1851.0
76.475064082,1860.0
76.491775351,1749.0
76.508486620,1844.0
76.525197889,1807.0
76.541909158,1716.0
76.558620427,1705.0
76.575331696,1754.0
76.592042965,1769.0
76.608754234,1817.0
76.625465503,1750.0
76.642176772,1694.0
76.658888041,1644.0
76.675599310,1712.0
76.692310579,1687.0
76.709021848,1669.0
76.725733117,1689.0
76.742444386,1675.0
76.759155655,1691.0
76.775866924,1682.0
76.792578193,1731.0
76.809289462,1635.0
76.826000731,1645.0
76.842712000,1734.0
76.859423269,1690.0
76.876134538,1620.0
76.892845807,1674.0
76.909557076,1575.0
76.926268345,1660.0
76.942979614,1619.0
76.959690883,1657.0
76.976402152,1711.0
76.993113421,1615.0
77.009824690,1590.0
77.026535959,1683.0
77.043247228,1627.0
77.059958497,1613.0
77.076669766,1625.0
77.093381035,1631.0
77.110092304,1610.0
77.126803572,1684.0
77.143514841,1655.0
77.160226110,1578.0
77.176937379,1601.0
77.193648648,1618.0
77.210359917,1657.0
77.227071186,1703.0
77.243782455,1654.0
77.260493724,1639.0
77.277204993,1658.0
77.293916262,1574.0
77.310627531,1608.0
77.327338800,1613.0
77.344050069,1612.0
77.360761338,1604.0
77.377472607,1580.0
77.394183876,1569.0
77.410895145,1601.0
77.427606414,1513.0
77.444317683,1650.0
77.461028952,1633.0
77.477740221,1668.0
77.494451490,1610.0
77.511162759,1563.0
77.527874028,1628.0
77.544585297,1546.0
77.561296566,1628.0
77.578007835,1641.0
77.594719104,1564.0
77.611430373,1596.0
77.628141642,1576.0
77.644852911,1613.0
77.661564180,1587.0
77.678275449,1646.0
77.694986718,1555.0
77.711697987,1610.0
77.728409256,1604.0
77.745120525,1691.0
77.761831794,1556.0
77.778543063,1596.0
77.795254332,1584.0
77.811965601,1540.0
77.828676870,1618.0
77.845388139,1600.0
77.862099408,1583.0
77.878810676,1530.0
77.895521945,1549.0
77.912233214,1555.0
77.928944483,1571.0
77.945655752,1579.0
77.962367021,1596.0
77.979078290,1561.0
77.995789559,1563.0
78.012500828,1570.0
78.029212097,1538.0
78.045923366,1620.0
78.062634635,1554.0
78.079345904,1574.0
78.096057173,1570.0
78.112768442,1539.0
78.129479711,1561.0
78.146190980,1618.0
78.162902249,1592.0
78.179613518,1641.0
78.196324787,1541.0
78.213036056,1651.0
78.229747325,1565.0
78.246458594,1560.0
78.263169863,1619.0
78.279881132,1565.0
78.296592401,1556.0
78.313303670,1554.0
78.330014939,1519.0
78.346726208,1499.0
78.363437477,1538.0
78.380148746,1518.0
78.396860015,1554.0
78.413571284,1585.0
78.430282553,1533.0
78.446993822,1594.0
78.463705091,1595.0
78.480416360,1505.0
78.497127629,1497.0
78.513838898,1593.0
78.530550167,1550.0
78.547261436,1522.0
78.563972705,1501.0
78.580683974,1540.0
78.597395243,1501.0
78.614106512,1618.0
78.630817781,1560.0
78.647529049,1564.0
78.664240318,1556.0
78.680951587,1563.0
78.697662856,1500.0
78.714374125,1507.0
78.731085394,1507.0
78.747796663,1531.0
78.764507932,1618.0
78.781219201,1535.0
78.797930470,1541.0
78.814641739,1580.0
78.831353008,1512.0
78.848064277,1570.0
78.864775546,1533.0
78.881486815,1573.0
78.898198084,1514.0
78.914909353,1608.0
78.931620622,1573.0
78.948331891,1454.0
78.965043160,1557.0
78.981754429,1576.0
78.998465698,1549.0
79.015176967,1525.0
79.031888236,1490.0
79.048599505,1480.0
79.065310774,1543.0
79.082022043,1489.0
79.098733312,1495.0
79.115444581,1537.0
79.132155850,1527.0
79.148867119,1491.0
79.165578388,1585.0
79.182289657,1512.0
79.199000926,1606.0
79.215712195,1479.0
79.232423464,1520.0
79.249134733,1401.0
79.265846002,1477.0
79.282557271,1615.0
79.299268540,1516.0
79.315979809,1548.0
79.332691078,1530.0
79.349402347,1544.0
79.366113616,1556.0
79.382824885,1441.0
79.399536153,1534.0
79.416247422,1578.0
79.432958691,1493.0
79.449669960,1461.0
79.466381229,1461.0
79.483092498,1504.0
79.499803767,1527.0
79.516515036,1467.0
79.533226305,1546.0
79.549937574,1544.0
79.566648843,1529.0
79.583360112,1555.0
79.600071381,1492.0
79.616782650,1517.0
79.633493919,1506.0
79.650205188,1449.0
79.666916457,1556.0
79.683627726,1532.0
79.700338995,1511.0
79.717050264,1517.0
79.733761533,1425.0
79.750472802,1488.0
79.767184071,1425.0
79.783895340,1533.0
79.800606609,1530.0
79.817317878,1540.0
79.834029147,1499.0
79.850740416,1560.0
79.867451685,1449.0
79.884162954,1571.0
79.900874223,1493.0
79.917585492,1509.0
79.934296761,1477.0
79.951008030,1516.0
79.967719299,1502.0
79.984430568,1537.0
80.001141837,1473.0
80.017853106,1528.0
80.034564375,1467.0
80.051275644,1527.0
80.067986913,1457.0
80.084698182,1426.0
80.101409451,1533.0
80.118120720,1496.0
80.134831989,1476.0
80.151543258,1527.0
80.168254526,1487.0
80.184965795,1520.0
80.201677064,1512.0
80.218388333,1481.0
80.235099602,1552.0
80.251810871,1484.0
80.268522140,1494.0
80.285233409,1471.0
80.301944678,1487.0
80.318655947,1467.0
80.335367216,1546.0
80.352078485,1504.0
80.368789754,1472.0
80.385501023,1523.0
80.402212292,1495.0
80.418923561,1457.0
80.435634830,1485.0
80.452346099,1496.0
80.469057368,1443.0
80.485768637,1429.0
80.502479906,1523.0
80.519191175,1544.0
80.535902444,1555.0
80.552613713,1531.0
80.569324982,1496.0
80.586036251,1440.0
80.602747520,1474.0
80.619458789,1433.0
80.636170058,1542.0
80.652881327,1465.0
80.669592596,1477.0
80.686303865,1541.0
80.703015134,1521.0
80.719726403,1418.0
80.736437672,1503.0
80.753148941,1531.0
80.769860210,1536.0
80.786571479,1462.0
80.803282748,1494.0
80.819994017,1472.0
80.836705286,1536.0
80.853416555,1370.0
80.870127824,1452.0
80.886839093,1399.0
80.903550362,1458.0
80.920261630,1448.0
80.936972899,1461.0
80.953684168,1511.0
80.970395437,1546.0
80.987106706,1425.0
81.003817975,1415.0
81.020529244,1409.0
81.037240513,1505.0
81.053951782,1398.0
81.070663051,1494.0
81.087374320,1475.0
81.104085589,1446.0
81.120796858,1490.0
81.137508127,1544.0
81.154219396,1491.0
81.170930665,1459.0
81.187641934,1481.0
81.204353203,1446.0
81.221064472,1465.0
81.237775741,1459.0
81.254487010,1438.0
81.271198279,1510.0
81.287909548,1502.0
81.304620817,1415.0
81.321332086,1427.0
81.338043355,1436.0
81.354754624,1459.0
81.371465893,1459.0
81.388177162,1563.0
81.404888431,1452.0
81.421599700,1405.0
81.438310969,1479.0
81.455022238,1412.0
81.471733507,1493.0
81.488444776,1446.0
81.505156045,1526.0
81.521867314,1437.0
81.538578583,1443.0
81.555289852,1490.0
81.572001121,1461.0
81.588712390,1440.0
81.605423659,1388.0
81.622134928,1488.0
81.638846197,1493.0
81.655557466,1544.0
81.672268735,1425.0
81.688980003,1439.0
81.705691272,1397.0
81.722402541,1504.0
81.739113810,1458.0
81.755825079,1478.0
81.772536348,1437.0
81.789247617,1478.0
81.805958886,1385.0
81.822670155,1475.0
81.839381424,1501.0
81.856092693,1471.0
81.872803962,1484.0
81.889515231,1435.0
81.906226500,1408.0
81.922937769,1491.0
81.939649038,1444.0
81.956360307,1499.0
81.973071576,1436.0
81.989782845,1453.0
82.006494114,1412.0
82.023205383,1392.0
82.039916652,1437.0
82.056627921,1442.0
82.073339190,1438.0
82.090050459,1433.0
82.106761728,1444.0
82.123472997,1364.0
82.140184266,1418.0
82.156895535,1429.0
82.173606804,1443.0
82.190318073,1415.0
82.207029342,1480.0
82.223740611,1388.0
82.240451880,1528.0
82.257163149,1509.0
82.273874418,1488.0
82.290585687,1446.0
82.307296956,1497.0
82.324008225,1474.0
82.340719494,1461.0
82.357430763,1419.0
82.374142032,1436.0
82.390853301,1462.0
82.407564570,1470.0
82.424275839,1447.0
82.440987107,1434.0
82.457698376,1428.0
82.474409645,1472.0
82.491120914,1413.0
82.507832183,1407.0
82.524543452,1466.0
82.541254721,1426.0
82.557965990,1394.0
82.574677259,1487.0
82.591388528,1429.0
82.608099797,1409.0
82.624811066,1480.0
82.641522335,1376.0
82.658233604,1418.0
82.674944873,1378.0
82.691656142,1471.0
82.708367411,1427.0
82.725078680,1419.0
82.741789949,1483.0
82.758501218,1373.0
82.775212487,1453.0
82.791923756,1438.0
82.808635025,1403.0
82.825346294,1463.0
82.842057563,1489.0
82.858768832,1435.0
82.875480101,1389.0
82.892191370,1455.0
82.908902639,1436.0
82.925613908,1501.0
82.942325177,1403.0
82.959036446,1454.0
82.975747715,1380.0
82.992458984,1446.0
83.009170253,1508.0
83.025881522,1415.0
83.042592791,1434.0
83.059304060,1373.0
83.076015329,1437.0
83.092726598,1467.0
83.109437867,1513.0
83.126149136,1427.0
83.142860405,1412.0
83.159571674,1489.0
83.176282943,1442.0
83.192994212,1429.0
83.209705480,1384.0
83.226416749,1357.0
83.243128018,1384.0
83.259839287,1496.0
83.276550556,1465.0
83.293261825,1376.0
83.309973094,1383.0
83.326684363,1450.0
83.343395632,1428.0
83.360106901,1444.0
83.376818170,1435.0
83.393529439,1368.0
83.410240708,1396.0
83.426951977,1387.0
83.443663246,1402.0
83.460374515,1380.0
83.477085784,1481.0
83.493797053,1475.0
83.510508322,1419.0
83.527219591,1429.0
83.543930860,1467.0
83.560642129,1501.0
83.577353398,1402.0
83.594064667,1435.0
83.610775936,1476.0
83.627487205,1380.0
83.644198474,1390.0
83.660909743,1413.0
83.677621012,1381.0
83.694332281,1411.0
83.711043550,1446.0
83.727754819,1352.0
83.744466088,1373.0
83.761177357,1422.0
83.777888626,1389.0
83.794599895,1480.0
83.811311164,1443.0
83.828022433,1358.0
83.844733702,1425.0
83.861444971,1414.0
83.878156240,1402.0
83.894867509,1493.0
83.911578778,1402.0
83.928290047,1410.0
83.945001316,1374.0
83.961712584,1376.0
83.978423853,1426.0
83.995135122,1378.0
84.011846391,1376.0
84.028557660,1421.0
84.045268929,1409.0
84.061980198,1460.0
84.078691467,1408.0
84.095402736,1397.0
84.112114005,1413.0
84.128825274,1390.0
84.145536543,1304.0
84.162247812,1406.0
84.178959081,1409.0
84.195670350,1406.0
84.212381619,1384.0
84.229092888,1414.0
84.245804157,1357.0
84.262515426,1318.0
84.279226695,1337.0
84.295937964,1405.0
84.312649233,1369.0
84.329360502,1420.0
84.346071771,1445.0
84.362783040,1362.0
84.379494309,1376.0
84.396205578,1459.0
84.412916847,1385.0
84.429628116,1392.0
84.446339385,1433.0
84.463050654,1341.0
84.479761923,1337.0
84.496473192,1359.0
84.513184461,1468.0
84.529895730,1281.0
84.546606999,1306.0
84.563318268,1341.0
84.580029537,1385.0
84.596740806,1435.0
84.613452075,1400.0
84.630163344,1396.0
84.646874613,1410.0
84.663585882,1435.0
84.680297151,1474.0
84.697008420,1446.0
84.713719689,1484.0
84.730430957,1406.0
84.747142226,1444.0
84.763853495,1374.0
84.780564764,1404.0
84.797276033,1417.0
84.813987302,1440.0
84.830698571,1397.0
84.847409840,1309.0
84.864121109,1424.0
84.880832378,1426.0
84.897543647,1453.0
84.914254916,1419.0
84.930966185,1406.0
84.947677454,1402.0
84.964388723,1324.0
84.981099992,1333.0
84.997811261,1381.0
85.014522530,1458.0
85.031233799,1412.0
85.047945068,1410.0
85.064656337,1381.0
85.081367606,1335.0
85.098078875,1354.0
85.114790144,1334.0
85.131501413,1459.0
85.148212682,1400.0
85.164923951,1380.0
85.181635220,1343.0
85.198346489,1349.0
85.215057758,1346.0
85.231769027,1383.0
85.248480296,1464.0
85.265191565,1363.0
85.281902834,1387.0
85.298614103,1331.0
85.315325372,1429.0
85.332036641,1434.0
85.348747910,1343.0
85.365459179,1422.0
85.382170448,1387.0
85.398881717,1378.0
85.415592986,1364.0
85.432304255,1348.0
85.449015524,1343.0
85.465726793,1413.0
85.482438061,1384.0
85.499149330,1379.0
85.515860599,1408.0
85.532571868,1330.0
85.549283137,1364.0
85.565994406,1362.0
85.582705675,1352.0
85.599416944,1336.0
85.616128213,1335.0
85.632839482,1329.0
85.649550751,1367.0
85.666262020,1393.0
85.682973289,1314.0
85.699684558,1392.0
85.716395827,1383.0
85.733107096,1379.0
85.749818365,1365.0
85.766529634,1403.0
85.783240903,1324.0
85.799952172,1404.0
85.816663441,1395.0
85.833374710,1405.0
85.850085979,1351.0
85.866797248,1386.0
85.883508517,1347.0
85.900219786,1369.0
85.916931055,1382.0
85.933642324,1350.0
85.950353593,1394.0
85.967064862,1396.0
85.983776131,1321.0
86.000487400,1430.0
86.017198669,1348.0
86.033909938,1409.0
86.050621207,1401.0
86.067332476,1394.0
86.084043745,1422.0
86.100755014,1394.0
86.117466283,1366.0
86.134177552,1387.0
86.150888821,1342.0
86.167600090,1419.0
86.184311359,1394.0
86.201022628,1359.0
86.217733897,1428.0
86.234445166,1324.0
86.251156434,1345.0
86.267867703,1343.0
86.284578972,1382.0
86.301290241,1388.0
86.318001510,1330.0
86.334712779,1311.0
86.351424048,1371.0
86.368135317,1363.0
86.384846586,1339.0
86.401557855,1317.0
86.418269124,1434.0
86.434980393,1356.0
86.451691662,1352.0
86.468402931,1393.0
86.485114200,1398.0
86.501825469,1372.0
86.518536738,1341.0
86.535248007,1367.0
86.551959276,1438.0
86.568670545,1410.0
86.585381814,1430.0
86.602093083,1390.0
86.618804352,1369.0
86.635515621,1346.0
86.652226890,1332.0
86.668938159,1320.0
86.685649428,1327.0
86.702360697,1365.0
86.719071966,1405.0
86.735783235,1398.0
86.752494504,1375.0
86.769205773,1388.0
86.785917042,1350.0
86.802628311,1390.0
86.819339580,1382.0
86.836050849,1318.0
86.852762118,1330.0
86.869473387,1358.0
86.886184656,1351.0
86.902895925,1381.0
86.919607194,1446.0
86.936318463,1345.0
86.953029732,1382.0
86.969741001,1357.0
86.986452270,1324.0
87.003163539,1369.0
87.019874807,1378.0
87.036586076,1347.0
87.053297345,1348.0
87.070008614,1371.0
87.086719883,1292.0
87.103431152,1357.0
87.120142421,1377.0
87.136853690,1369.0
87.153564959,1408.0
87.170276228,1425.0
87.186987497,1379.0
87.203698766,1365.0
87.220410035,1359.0
87.237121304,1319.0
87.253832573,1299.0
87.270543842,1391.0
87.287255111,1368.0
87.303966380,1355.0
87.320677649,1390.0
87.337388918,1383.0
87.354100187,1339.0
87.370811456,1349.0
87.387522725,1310.0
87.404233994,1353.0
87.420945263,1367.0
87.437656532,1349.0
87.454367801,1299.0
87.471079070,1372.0
87.487790339,1418.0
87.504501608,1353.0
87.521212877,1291.0
87.537924146,1374.0
87.554635415,1423.0
87.571346684,1348.0
87.588057953,1379.0
87.604769222,1341.0
87.621480491,1414.0
87.638191760,1395.0
87.654903029,1412.0
87.671614298,1368.0
87.688325567,1348.0
87.705036836,1352.0
87.721748105,1320.0
87.738459374,1357.0
87.755170643,1330.0
87.771881911,1359.0
87.788593180,1376.0
87.805304449,1304.0
87.822015718,1310.0
87.838726987,1370.0
87.855438256,1403.0
87.872149525,1342.0
87.888860794,1306.0
87.905572063,1317.0
87.922283332,1344.0
87.938994601,1357.0
87.955705870,1395.0
87.972417139,1405.0
87.989128408,1348.0
88.005839677,1322.0
88.022550946,1348.0
88.039262215,1308.0
88.055973484,1301.0
88.072684753,1357.0
88.089396022,1323.0
88.106107291,1284.0
88.122818560,1281.0
88.139529829,1324.0
88.156241098,1378.0
88.172952367,1301.0
88.189663636,1381.0
88.206374905,1393.0
88.223086174,1370.0
88.239797443,1368.0
88.256508712,1291.0
88.273219981,1378.0
88.289931250,1479.0
88.306642519,1339.0
88.323353788,1306.0
88.340065057,1352.0
88.356776326,1381.0
88.373487595,1383.0
88.390198864,1392.0
88.406910133,1309.0
88.423621402,1342.0
88.440332671,1275.0
88.457043940,1335.0
88.473755209,1343.0
88.490466478,1313.0
88.507177747,1345.0
88.523889016,1361.0
88.540600284,1351.0
88.557311553,1355.0
88.574022822,1384.0
88.590734091,1361.0
88.607445360,1350.0
88.624156629,1328.0
88.640867898,1328.0
88.657579167,1330.0
88.674290436,1340.0
88.691001705,1358.0
88.707712974,1419.0
88.724424243,1294.0
88.741135512,1376.0
88.757846781,1336.0
88.774558050,1380.0
88.791269319,1323.0
88.807980588,1307.0
88.824691857,1335.0
88.841403126,1312.0
88.858114395,1352.0
88.874825664,1363.0
88.891536933,1322.0
88.908248202,1264.0
88.924959471,1309.0
88.941670740,1405.0
88.958382009,1301.0
88.975093278,1359.0
88.991804547,1311.0
89.008515816,1309.0
89.025227085,1358.0
89.041938354,1251.0
89.058649623,1278.0
89.075360892,1335.0
89.092072161,1372.0
89.108783430,1339.0
89.125494699,1269.0
89.142205968,1363.0
89.158917237,1344.0
89.175628506,1335.0
89.192339775,1299.0
89.209051044,1385.0
89.225762313,1353.0
89.242473582,1361.0
89.259184851,1346.0
89.275896120,1397.0
89.292607388,1319.0
89.309318657,1384.0
89.326029926,1325.0
89.342741195,1354.0
89.359452464,1323.0
89.376163733,1328.0
89.392875002,1248.0
89.409586271,1365.0
89.426297540,1299.0
89.443008809,1372.0
89.459720078,1311.0
89.476431347,1342.0
89.493142616,1377.0
89.509853885,1351.0
89.526565154,1305.0
89.543276423,1356.0
89.559987692,1262.0
89.576698961,1339.0
89.593410230,1320.0
89.610121499,1386.0
89.626832768,1298.0
89.643544037,1274.0
89.660255306,1332.0
89.676966575,1369.0
89.693677844,1258.0
89.710389113,1294.0
89.727100382,1350.0
89.743811651,1309.0
89.760522920,1323.0
89.777234189,1295.0
89.793945458,1324.0
89.810656727,1302.0
89.827367996,1329.0
89.844079265,1356.0
89.860790534,1364.0
89.877501803,1290.0
89.894213072,1315.0
89.910924341,1326.0
89.927635610,1434.0
89.944346879,1289.0
89.961058148,1409.0
89.977769417,1382.0
89.994480686,1277.0
90.011191955,1380.0
90.027903224,1294.0
90.044614493,1362.0
90.061325761,1346.0
90.078037030,1332.0
90.094748299,1390.0
90.111459568,1331.0
90.128170837,1328.0
90.144882106,1414.0
90.161593375,1343.0
90.178304644,1345.0
90.195015913,1377.0
90.211727182,1336.0
90.228438451,1349.0
90.245149720,1254.0
90.261860989,1307.0
90.278572258,1360.0
90.295283527,1305.0
90.311994796,1325.0
90.328706065,1337.0
90.345417334,1319.0
90.362128603,1323.0
90.378839872,1350.0
90.395551141,1390.0
90.412262410,1350.0
90.428973679,1384.0
90.445684948,1343.0
90.462396217,1288.0
90.479107486,1367.0
90.495818755,1325.0
90.512530024,1289.0
90.529241293,1367.0
90.545952562,1382.0
90.562663831,1382.0
90.579375100,1288.0
90.596086369,1342.0
90.612797638,1320.0
90.629508907,1394.0
90.646220176,1421.0
90.662931445,1338.0
90.679642714,1371.0
90.696353983,1270.0
90.713065252,1362.0
90.729776521,1370.0
90.746487790,1387.0
90.763199059,1336.0
90.779910328,1367.0
90.796621597,1360.0
90.813332865,1379.0
90.830044134,1374.0
90.846755403,1307.0
90.863466672,1372.0
90.880177941,1346.0
90.896889210,1443.0
90.913600479,1375.0
90.930311748,1299.0
90.947023017,1307.0
90.963734286,1283.0
90.980445555,1373.0
90.997156824,1390.0
91.013868093,1358.0
91.030579362,1355.0
91.047290631,1403.0
91.064001900,1352.0
91.080713169,1357.0
91.097424438,1373.0
91.114135707,1305.0
91.130846976,1348.0
91.147558245,1285.0
91.164269514,1397.0
91.180980783,1318.0
91.197692052,1316.0
91.214403321,1365.0
91.231114590,1325.0
91.247825859,1278.0
91.264537128,1408.0
91.281248397,1348.0
91.297959666,1400.0
91.314670935,1390.0
91.331382204,1361.0
91.348093473,1354.0
91.364804742,1385.0
91.381516011,1393.0
91.398227280,1397.0
91.414938549,1404.0
91.431649818,1406.0
91.448361087,1393.0
91.465072356,1432.0
91.481783625,1399.0
91.498494894,1414.0
91.515206163,1350.0
91.531917432,1349.0
91.548628701,1385.0
91.565339970,1380.0
91.582051238,1354.0
91.598762507,1426.0
91.615473776,1343.0
91.632185045,1422.0
91.648896314,1336.0
91.665607583,1394.0
91.682318852,1448.0
91.699030121,1433.0
91.715741390,1409.0
91.732452659,1420.0
91.749163928,1460.0
91.765875197,1471.0
91.782586466,1404.0
91.799297735,1432.0
91.816009004,1420.0
91.832720273,1449.0
91.849431542,1408.0
91.866142811,1410.0
91.882854080,1454.0
91.899565349,1467.0
91.916276618,1470.0
91.932987887,1409.0
91.949699156,1460.0
91.966410425,1480.0
91.983121694,1472.0
91.999832963,1476.0
92.016544232,1476.0
92.033255501,1570.0
92.049966770,1467.0
92.066678039,1489.0
92.083389308,1492.0
92.100100577,1515.0
92.116811846,1481.0
92.133523115,1515.0
92.150234384,1588.0
92.166945653,1518.0
92.183656922,1591.0
92.200368191,1548.0
92.217079460,1554.0
92.233790729,1597.0
92.250501998,1673.0
92.267213267,1608.0
92.283924536,1657.0
92.300635805,1658.0
92.317347074,1569.0
92.334058342,1697.0
92.350769611,1664.0
92.367480880,1675.0
92.384192149,1731.0
92.400903418,1713.0
92.417614687,1816.0
92.434325956,1828.0
92.451037225,1787.0
92.467748494,1840.0
92.484459763,1835.0
92.501171032,1820.0
92.517882301,1884.0
92.534593570,1849.0
92.551304839,1834.0
92.568016108,1854.0
92.584727377,1873.0
92.601438646,1813.0
92.618149915,1846.0
92.634861184,1827.0
92.651572453,1762.0
92.668283722,1789.0
92.684994991,1802.0
92.701706260,1737.0
92.718417529,1766.0
92.735128798,1734.0
92.751840067,1637.0
92.768551336,1774.0
92.785262605,1709.0
92.801973874,1737.0
92.818685143,1648.0
92.835396412,1559.0
92.852107681,1614.0
92.868818950,1646.0
92.885530219,1594.0
92.902241488,1634.0
92.918952757,1662.0
92.935664026,1673.0
92.952375295,1599.0
92.969086564,1641.0
92.985797833,1469.0
93.002509102,1480.0
93.019220371,1565.0
93.035931640,1412.0
93.052642909,1458.0
93.069354178,1461.0
93.086065447,1487.0
93.102776715,1464.0
93.119487984,1426.0
93.136199253,1430.0
93.152910522,1456.0
93.169621791,1348.0
93.186333060,1389.0
93.203044329,1346.0
93.219755598,1370.0
93.236466867,1308.0
93.253178136,1346.0
93.269889405,1317.0
93.286600674,1321.0
93.303311943,1334.0
93.320023212,1407.0
93.336734481,1367.0
93.353445750,1345.0
93.370157019,1344.0
93.386868288,1335.0
93.403579557,1325.0
93.420290826,1381.0
93.437002095,1325.0
93.453713364,1359.0
93.470424633,1372.0
93.487135902,1297.0
93.503847171,1296.0
93.520558440,1316.0
93.537269709,1313.0
93.553980978,1385.0
93.570692247,1298.0
93.587403516,1360.0
93.604114785,1290.0
93.620826054,1330.0
93.637537323,1292.0
93.654248592,1346.0
93.670959861,1380.0
93.687671130,1350.0
93.704382399,1323.0
93.721093668,1278.0
93.737804937,1259.0
93.754516206,1360.0
93.771227475,1251.0
93.787938744,1285.0
93.804650013,1340.0
93.821361282,1277.0
93.838072551,1354.0
93.854783819,1256.0
93.871495088,1261.0
93.888206357,1321.0
93.904917626,1285.0
93.921628895,1294.0
93.938340164,1284.0
93.955051433,1295.0
93.971762702,1264.0
93.988473971,1301.0
94.005185240,1308.0
94.021896509,1295.0
94.038607778,1281.0
94.055319047,1248.0
94.072030316,1342.0
94.088741585,1291.0
94.105452854,1223.0
94.122164123,1283.0
94.138875392,1279.0
94.155586661,1345.0
94.172297930,1307.0
94.189009199,1288.0
94.205720468,1337.0
94.222431737,1290.0
94.239143006,1302.0
94.255854275,1242.0
94.272565544,1331.0
94.289276813,1344.0
94.305988082,1304.0
94.322699351,1364.0
94.339410620,1302.0
94.356121889,1352.0
94.372833158,1303.0
94.389544427,1382.0
94.406255696,1307.0
94.422966965,1272.0
94.439678234,1349.0
94.456389503,1276.0
94.473100772,1310.0
94.489812041,1241.0
94.506523310,1252.0
94.523234579,1270.0
94.539945848,1293.0
94.556657117,1288.0
94.573368386,1254.0
94.590079655,1252.0
94.606790924,1315.0
94.623502192,1271.0
94.640213461,1353.0
94.656924730,1274.0
94.673635999,1327.0
94.690347268,1341.0
94.707058537,1250.0
94.723769806,1300.0
94.740481075,1284.0
94.757192344,1272.0
94.773903613,1293.0
94.790614882,1308.0
94.807326151,1261.0
94.824037420,1250.0
94.840748689,1353.0
94.857459958,1308.0
94.874171227,1355.0
94.890882496,1268.0
94.907593765,1284.0
94.924305034,1349.0
94.941016303,1283.0
94.957727572,1304.0
94.974438841,1331.0
94.991150110,1250.0
