[Measurement conditions]
Sample identification,
Comment - 1,"finito"
Comment - 2,"Configuration=MRI TC-Basic Stage, Owner=User-1, Creation date=26-10-2009 9:18:44"
Comment - 3,"Goniometer=PW3050/60 (Theta/Theta); Minimum step size 2Theta:0.001; Minimum step size Omega:0.001"
Comment - 4,"Sample stage=MRI TC-Basic (PtRh heat strip)"
Comment - 5,"Diffractometer system=XPERT-PRO"
Comment - 6,"Measurement program=FS-L, Owner=joana, Creation date=25-11-2014 17:28:08"
Anode material,Cu
K-Alpha1 wavelength,1.5405980
K-Alpha2 wavelength,1.5444260
Ratio K-Alpha2/K-Alpha1,0.500
Divergence slit,Fixed,0.76mm
Monochromator used,NO
Generator voltage, 45
Tube current, 40
File date and time,15-Dez-2017 19:35
Unit cell,
h k l, 0 0 0
Temperature [K],423
Scan axis,Gonio
Scan range,24.995999996,94.999505744
Scan step size,0.0167113
No. of points, 4189
Scan type,CONTINUOUS
Time per step,118.110
[Scan points]
Angle,Intensity
25.004355630,2341.0
25.021066899,2249.0
25.037778168,2300.0
25.054489437,2249.0
25.071200706,2262.0
25.087911975,2256.0
25.104623244,2264.0
25.121334513,2255.0
25.138045782,2299.0
25.154757051,2289.0
25.171468320,2218.0
25.188179589,2252.0
25.204890858,2282.0
25.221602127,2288.0
25.238313396,2207.0
25.255024665,2248.0
25.271735934,2292.0
25.288447203,2198.0
25.305158472,2229.0
25.321869741,2244.0
25.338581010,2211.0
25.355292279,2395.0
25.372003548,2234.0
25.388714816,2267.0
25.405426085,2174.0
25.422137354,2284.0
25.438848623,2303.0
25.455559892,2295.0
25.472271161,2172.0
25.488982430,2231.0
25.505693699,2322.0
25.522404968,2290.0
25.539116237,2261.0
25.555827506,2330.0
25.572538775,2121.0
25.589250044,2258.0
25.605961313,2188.0
25.622672582,2290.0
25.639383851,2241.0
25.656095120,2277.0
25.672806389,2260.0
25.689517658,2274.0
25.706228927,2219.0
25.722940196,2311.0
25.739651465,2259.0
25.756362734,2301.0
25.773074003,2235.0
25.789785272,2302.0
25.806496541,2187.0
25.823207810,2281.0
25.839919079,2258.0
25.856630348,2269.0
25.873341617,2295.0
25.890052886,2340.0
25.906764155,2214.0
25.923475424,2260.0
25.940186693,2168.0
25.956897962,2245.0
25.973609231,2271.0
25.990320500,2255.0
26.007031769,2217.0
26.023743038,2239.0
26.040454307,2237.0
26.057165576,2204.0
26.073876845,2319.0
26.090588114,2214.0
26.107299383,2252.0
26.124010652,2198.0
26.140721921,2204.0
26.157433189,2254.0
26.174144458,2215.0
26.190855727,2248.0
26.207566996,2217.0
26.224278265,2335.0
26.240989534,2158.0
26.257700803,2264.0
26.274412072,2241.0
26.291123341,2255.0
26.307834610,2226.0
26.324545879,2277.0
26.341257148,2164.0
26.357968417,2247.0
26.374679686,2304.0
26.391390955,2251.0
26.408102224,2196.0
26.424813493,2189.0
26.441524762,2257.0
26.458236031,2202.0
26.474947300,2221.0
26.491658569,2316.0
26.508369838,2217.0
26.525081107,2263.0
26.541792376,2188.0
26.558503645,2156.0
26.575214914,2250.0
26.591926183,2300.0
26.608637452,2322.0
26.625348721,2248.0
26.642059990,2290.0
26.658771259,2220.0
26.675482528,2352.0
26.692193797,2278.0
26.708905066,2300.0
26.725616335,2204.0
26.742327604,2260.0
26.759038873,2284.0
26.775750142,2240.0
26.792461411,2285.0
26.809172680,2125.0
26.825883949,2169.0
26.842595218,2292.0
26.859306487,2146.0
26.876017756,2155.0
26.892729025,2250.0
26.909440293,2235.0
26.926151562,2184.0
26.942862831,2130.0
26.959574100,2209.0
26.976285369,2238.0
26.992996638,2252.0
27.009707907,2177.0
27.026419176,2187.0
27.043130445,2165.0
27.059841714,2181.0
27.076552983,2138.0
27.093264252,2209.0
27.109975521,2235.0
27.126686790,2219.0
27.143398059,2246.0
27.160109328,2229.0
27.176820597,2165.0
27.193531866,2249.0
27.210243135,2195.0
27.226954404,2279.0
27.243665673,2275.0
27.260376942,2138.0
27.277088211,2201.0
27.293799480,2139.0
27.310510749,2208.0
27.327222018,2215.0
27.343933287,2246.0
27.360644556,2204.0
27.377355825,2099.0
27.394067094,2141.0
27.410778363,2133.0
27.427489632,2174.0
27.444200901,2180.0
27.460912170,2227.0
27.477623439,2145.0
27.494334708,2130.0
27.511045977,2214.0
27.527757246,2174.0
27.544468515,2216.0
27.561179784,2295.0
27.577891053,2335.0
27.594602322,2268.0
27.611313591,2160.0
27.628024860,2260.0
27.644736129,2236.0
27.661447398,2192.0
27.678158666,2194.0
27.694869935,2182.0
27.711581204,2175.0
27.728292473,2151.0
27.745003742,2176.0
27.761715011,2193.0
27.778426280,2212.0
27.795137549,2298.0
27.811848818,2148.0
27.828560087,2138.0
27.845271356,2211.0
27.861982625,2172.0
27.878693894,2194.0
27.895405163,2248.0
27.912116432,2220.0
27.928827701,2249.0
27.945538970,2166.0
27.962250239,2188.0
27.978961508,2134.0
27.995672777,2195.0
28.012384046,2115.0
28.029095315,2225.0
28.045806584,2230.0
28.062517853,2237.0
28.079229122,2194.0
28.095940391,2150.0
28.112651660,2241.0
28.129362929,2205.0
28.146074198,2209.0
28.162785467,2300.0
28.179496736,2281.0
28.196208005,2301.0
28.212919274,2198.0
28.229630543,2322.0
28.246341812,2372.0
28.263053081,2717.0
28.279764350,3547.0
28.296475619,2739.0
28.313186888,2319.0
28.329898157,2373.0
28.346609426,2925.0
28.363320695,2709.0
28.380031964,2347.0
28.396743233,2278.0
28.413454502,2391.0
28.430165770,2433.0
28.446877039,2344.0
28.463588308,2386.0
28.480299577,2445.0
28.497010846,2291.0
28.513722115,2488.0
28.530433384,2377.0
28.547144653,2415.0
28.563855922,2480.0
28.580567191,2408.0
28.597278460,2384.0
28.613989729,2460.0
28.630700998,2319.0
28.647412267,2463.0
28.664123536,2321.0
28.680834805,2316.0
28.697546074,2386.0
28.714257343,2417.0
28.730968612,2284.0
28.747679881,2381.0
28.764391150,2361.0
28.781102419,2333.0
28.797813688,2402.0
28.814524957,2271.0
28.831236226,2333.0
28.847947495,2317.0
28.864658764,2283.0
28.881370033,2359.0
28.898081302,2305.0
28.914792571,2290.0
28.931503840,2206.0
28.948215109,2305.0
28.964926378,2163.0
28.981637647,2136.0
28.998348916,2219.0
29.015060185,2236.0
29.031771454,2260.0
29.048482723,2285.0
29.065193992,2184.0
29.081905261,2140.0
29.098616530,2200.0
29.115327799,2230.0
29.132039068,2271.0
29.148750337,2325.0
29.165461606,2298.0
29.182172875,2186.0
29.198884143,2255.0
29.215595412,2193.0
29.232306681,2199.0
29.249017950,2174.0
29.265729219,2313.0
29.282440488,2178.0
29.299151757,2224.0
29.315863026,2189.0
29.332574295,2284.0
29.349285564,2273.0
29.365996833,2187.0
29.382708102,2180.0
29.399419371,2165.0
29.416130640,2226.0
29.432841909,2240.0
29.449553178,2229.0
29.466264447,2218.0
29.482975716,2155.0
29.499686985,2179.0
29.516398254,2236.0
29.533109523,2100.0
29.549820792,2265.0
29.566532061,2270.0
29.583243330,2111.0
29.599954599,2202.0
29.616665868,2184.0
29.633377137,2114.0
29.650088406,2163.0
29.666799675,2081.0
29.683510944,2227.0
29.700222213,2020.0
29.716933482,2195.0
29.733644751,2175.0
29.750356020,2219.0
29.767067289,2182.0
29.783778558,2089.0
29.800489827,2235.0
29.817201096,2172.0
29.833912365,2192.0
29.850623634,2144.0
29.867334903,2145.0
29.884046172,2141.0
29.900757441,2225.0
29.917468710,2230.0
29.934179979,2198.0
29.950891247,2151.0
29.967602516,2228.0
29.984313785,2135.0
30.001025054,2152.0
30.017736323,2274.0
30.034447592,2119.0
30.051158861,2178.0
30.067870130,2197.0
30.084581399,2114.0
30.101292668,2129.0
30.118003937,2219.0
30.134715206,2096.0
30.151426475,2191.0
30.168137744,2164.0
30.184849013,2160.0
30.201560282,2228.0
30.218271551,2116.0
30.234982820,2135.0
30.251694089,2199.0
30.268405358,2183.0
30.285116627,2202.0
30.301827896,2191.0
30.318539165,2183.0
30.335250434,2149.0
30.351961703,2174.0
30.368672972,2126.0
30.385384241,2180.0
30.402095510,2209.0
30.418806779,2159.0
30.435518048,2129.0
30.452229317,2089.0
30.468940586,2162.0
30.485651855,2111.0
30.502363124,2133.0
30.519074393,2237.0
30.535785662,2038.0
30.552496931,2155.0
30.569208200,2061.0
30.585919469,2180.0
30.602630738,2265.0
30.619342007,2113.0
30.636053276,2181.0
30.652764545,2105.0
30.669475814,2124.0
30.686187083,2188.0
30.702898352,2181.0
30.719609620,2137.0
30.736320889,2159.0
30.753032158,2089.0
30.769743427,2150.0
30.786454696,2127.0
30.803165965,2127.0
30.819877234,2161.0
30.836588503,2082.0
30.853299772,2145.0
30.870011041,2139.0
30.886722310,2164.0
30.903433579,2143.0
30.920144848,2100.0
30.936856117,2120.0
30.953567386,2151.0
30.970278655,2093.0
30.986989924,2101.0
31.003701193,2158.0
31.020412462,2192.0
31.037123731,2143.0
31.053835000,2099.0
31.070546269,2238.0
31.087257538,2106.0
31.103968807,2101.0
31.120680076,2228.0
31.137391345,2114.0
31.154102614,2135.0
31.170813883,2156.0
31.187525152,2209.0
31.204236421,2144.0
31.220947690,2090.0
31.237658959,2019.0
31.254370228,2159.0
31.271081497,2145.0
31.287792766,2131.0
31.304504035,2190.0
31.321215304,2060.0
31.337926573,2205.0
31.354637842,2197.0
31.371349111,2079.0
31.388060380,2103.0
31.404771649,2120.0
31.421482918,2201.0
31.438194187,2065.0
31.454905456,2133.0
31.471616724,2128.0
31.488327993,2111.0
31.505039262,2156.0
31.521750531,2146.0
31.538461800,2099.0
31.555173069,2093.0
31.571884338,2217.0
31.588595607,2167.0
31.605306876,2176.0
31.622018145,2111.0
31.638729414,2102.0
31.655440683,2065.0
31.672151952,2129.0
31.688863221,2193.0
31.705574490,2102.0
31.722285759,2160.0
31.738997028,2104.0
31.755708297,2213.0
31.772419566,2156.0
31.789130835,2052.0
31.805842104,2208.0
31.822553373,2102.0
31.839264642,2156.0
31.855975911,2194.0
31.872687180,2162.0
31.889398449,1991.0
31.906109718,2110.0
31.922820987,2124.0
31.939532256,2246.0
31.956243525,2186.0
31.972954794,2075.0
31.989666063,2080.0
32.006377332,2219.0
32.023088601,2122.0
32.039799870,2171.0
32.056511139,2148.0
32.073222408,2066.0
32.089933677,2134.0
32.106644946,2157.0
32.123356215,2159.0
32.140067484,2081.0
32.156778753,2134.0
32.173490022,2202.0
32.190201291,2175.0
32.206912560,2103.0
32.223623829,2043.0
32.240335097,2199.0
32.257046366,2139.0
32.273757635,2125.0
32.290468904,2107.0
32.307180173,2084.0
32.323891442,2067.0
32.340602711,2133.0
32.357313980,2089.0
32.374025249,2168.0
32.390736518,2109.0
32.407447787,2194.0
32.424159056,2165.0
32.440870325,2155.0
32.457581594,2078.0
32.474292863,2097.0
32.491004132,2116.0
32.507715401,2208.0
32.524426670,2112.0
32.541137939,2230.0
32.557849208,2192.0
32.574560477,2178.0
32.591271746,2094.0
32.607983015,2105.0
32.624694284,2196.0
32.641405553,2056.0
32.658116822,2106.0
32.674828091,2134.0
32.691539360,2187.0
32.708250629,2099.0
32.724961898,2102.0
32.741673167,2095.0
32.758384436,2157.0
32.775095705,2223.0
32.791806974,2150.0
32.808518243,2134.0
32.825229512,2169.0
32.841940781,2252.0
32.858652050,2047.0
32.875363319,2156.0
32.892074588,2102.0
32.908785857,2198.0
32.925497126,2111.0
32.942208395,2123.0
32.958919664,2204.0
32.975630933,2167.0
32.992342201,2162.0
33.009053470,2131.0
33.025764739,2131.0
33.042476008,2114.0
33.059187277,2116.0
33.075898546,2136.0
33.092609815,2153.0
33.109321084,2206.0
33.126032353,2182.0
33.142743622,2182.0
33.159454891,2151.0
33.176166160,2001.0
33.192877429,2095.0
33.209588698,2062.0
33.226299967,2063.0
33.243011236,2088.0
33.259722505,2113.0
33.276433774,2102.0
33.293145043,2063.0
33.309856312,2071.0
33.326567581,2144.0
33.343278850,2141.0
33.359990119,2032.0
33.376701388,2072.0
33.393412657,2048.0
33.410123926,2033.0
33.426835195,2057.0
33.443546464,2149.0
33.460257733,2115.0
33.476969002,2046.0
33.493680271,2121.0
33.510391540,2008.0
33.527102809,2155.0
33.543814078,2078.0
33.560525347,2167.0
33.577236616,2151.0
33.593947885,2030.0
33.610659154,2157.0
33.627370423,2088.0
33.644081692,2159.0
33.660792961,2120.0
33.677504230,2114.0
33.694215499,2040.0
33.710926768,2174.0
33.727638037,2056.0
33.744349306,2157.0
33.761060574,2171.0
33.777771843,2167.0
33.794483112,2111.0
33.811194381,2224.0
33.827905650,2120.0
33.844616919,2195.0
33.861328188,1992.0
33.878039457,2041.0
33.894750726,2123.0
33.911461995,2100.0
33.928173264,2124.0
33.944884533,2093.0
33.961595802,2151.0
33.978307071,2106.0
33.995018340,2192.0
34.011729609,2116.0
34.028440878,2062.0
34.045152147,2103.0
34.061863416,2112.0
34.078574685,2064.0
34.095285954,2096.0
34.111997223,2092.0
34.128708492,2127.0
34.145419761,2124.0
34.162131030,2079.0
34.178842299,2055.0
34.195553568,2103.0
34.212264837,2092.0
34.228976106,2159.0
34.245687375,2068.0
34.262398644,2040.0
34.279109913,2119.0
34.295821182,2042.0
34.312532451,2094.0
34.329243720,2020.0
34.345954989,2124.0
34.362666258,2116.0
34.379377527,2044.0
34.396088796,2119.0
34.412800065,2066.0
34.429511334,2001.0
34.446222603,2032.0
34.462933872,2077.0
34.479645141,2005.0
34.496356410,2115.0
34.513067679,2121.0
34.529778947,2063.0
34.546490216,2150.0
34.563201485,2048.0
34.579912754,2107.0
34.596624023,2004.0
34.613335292,2051.0
34.630046561,2067.0
34.646757830,2046.0
34.663469099,2079.0
34.680180368,2166.0
34.696891637,2048.0
34.713602906,2051.0
34.730314175,2111.0
34.747025444,2089.0
34.763736713,2074.0
34.780447982,2127.0
34.797159251,2081.0
34.813870520,2123.0
34.830581789,2095.0
34.847293058,2108.0
34.864004327,2066.0
34.880715596,2056.0
34.897426865,2131.0
34.914138134,2045.0
34.930849403,2114.0
34.947560672,2131.0
34.964271941,2031.0
34.980983210,2087.0
34.997694479,1998.0
35.014405748,2158.0
35.031117017,2069.0
35.047828286,2080.0
35.064539555,2157.0
35.081250824,2176.0
35.097962093,2137.0
35.114673362,2063.0
35.131384631,2096.0
35.148095900,2013.0
35.164807169,2171.0
35.181518438,2054.0
35.198229707,2160.0
35.214940976,2167.0
35.231652245,2107.0
35.248363514,2004.0
35.265074783,2069.0
35.281786051,2185.0
35.298497320,2061.0
35.315208589,2093.0
35.331919858,2099.0
35.348631127,2033.0
35.365342396,2090.0
35.382053665,2141.0
35.398764934,1990.0
35.415476203,2015.0
35.432187472,2066.0
35.448898741,2069.0
35.465610010,2026.0
35.482321279,2091.0
35.499032548,2023.0
35.515743817,2077.0
35.532455086,2114.0
35.549166355,2093.0
35.565877624,2054.0
35.582588893,2114.0
35.599300162,2110.0
35.616011431,2071.0
35.632722700,2141.0
35.649433969,2157.0
35.666145238,2141.0
35.682856507,2080.0
35.699567776,2168.0
35.716279045,2106.0
35.732990314,2065.0
35.749701583,2044.0
35.766412852,2109.0
35.783124121,2163.0
35.799835390,2071.0
35.816546659,2122.0
35.833257928,2057.0
35.849969197,2090.0
35.866680466,1996.0
35.883391735,2098.0
35.900103004,2120.0
35.916814273,2177.0
35.933525542,2080.0
35.950236811,2028.0
35.966948080,2091.0
35.983659349,2115.0
36.000370618,2046.0
36.017081887,2047.0
36.033793156,2109.0
36.050504424,2064.0
36.067215693,2019.0
36.083926962,2047.0
36.100638231,2121.0
36.117349500,2049.0
36.134060769,2113.0
36.150772038,2046.0
36.167483307,1984.0
36.184194576,2056.0
36.200905845,2056.0
36.217617114,2093.0
36.234328383,2065.0
36.251039652,2092.0
36.267750921,2042.0
36.284462190,2066.0
36.301173459,2145.0
36.317884728,2077.0
36.334595997,2068.0
36.351307266,1964.0
36.368018535,2145.0
36.384729804,2055.0
36.401441073,2153.0
36.418152342,2152.0
36.434863611,1997.0
36.451574880,1949.0
36.468286149,2081.0
36.484997418,2068.0
36.501708687,2034.0
36.518419956,2012.0
36.535131225,2034.0
36.551842494,2014.0
36.568553763,2038.0
36.585265032,2070.0
36.601976301,2116.0
36.618687570,2148.0
36.635398839,2009.0
36.652110108,1983.0
36.668821377,2025.0
36.685532646,2086.0
36.702243915,2082.0
36.718955184,2150.0
36.735666453,2092.0
36.752377722,2044.0
36.769088991,2026.0
36.785800260,2004.0
36.802511528,2096.0
36.819222797,2107.0
36.835934066,2057.0
36.852645335,1967.0
36.869356604,2125.0
36.886067873,2104.0
36.902779142,2036.0
36.919490411,2067.0
36.936201680,2117.0
36.952912949,2089.0
36.969624218,2115.0
36.986335487,2041.0
37.003046756,2024.0
37.019758025,2103.0
37.036469294,2105.0
37.053180563,1962.0
37.069891832,2041.0
37.086603101,1984.0
37.103314370,2017.0
37.120025639,2087.0
37.136736908,2035.0
37.153448177,2123.0
37.170159446,2037.0
37.186870715,2070.0
37.203581984,2116.0
37.220293253,2056.0
37.237004522,2049.0
37.253715791,2034.0
37.270427060,2148.0
37.287138329,2163.0
37.303849598,2030.0
37.320560867,2077.0
37.337272136,2081.0
37.353983405,2070.0
37.370694674,2054.0
37.387405943,2066.0
37.404117212,2091.0
37.420828481,1980.0
37.437539750,2058.0
37.454251019,1979.0
37.470962288,2025.0
37.487673557,1980.0
37.504384826,2060.0
37.521096095,2090.0
37.537807364,1952.0
37.554518633,2057.0
37.571229901,2111.0
37.587941170,2032.0
37.604652439,2021.0
37.621363708,2089.0
37.638074977,2137.0
37.654786246,2085.0
37.671497515,2016.0
37.688208784,2090.0
37.704920053,2035.0
37.721631322,1991.0
37.738342591,2115.0
37.755053860,2059.0
37.771765129,2140.0
37.788476398,2054.0
37.805187667,2172.0
37.821898936,2016.0
37.838610205,2025.0
37.855321474,1950.0
37.872032743,2052.0
37.888744012,2052.0
37.905455281,2014.0
37.922166550,2056.0
37.938877819,2119.0
37.955589088,2028.0
37.972300357,1963.0
37.989011626,2132.0
38.005722895,2087.0
38.022434164,2074.0
38.039145433,2082.0
38.055856702,2078.0
38.072567971,2095.0
38.089279240,2140.0
38.105990509,2005.0
38.122701778,2091.0
38.139413047,2121.0
38.156124316,2116.0
38.172835585,2036.0
38.189546854,2094.0
38.206258123,2031.0
38.222969392,2017.0
38.239680661,2138.0
38.256391930,2091.0
38.273103199,2006.0
38.289814468,2060.0
38.306525737,2103.0
38.323237005,2046.0
38.339948274,2065.0
38.356659543,1984.0
38.373370812,2013.0
38.390082081,2129.0
38.406793350,2019.0
38.423504619,2045.0
38.440215888,2041.0
38.456927157,2016.0
38.473638426,2065.0
38.490349695,2065.0
38.507060964,2048.0
38.523772233,2011.0
38.540483502,2031.0
38.557194771,2099.0
38.573906040,2007.0
38.590617309,2070.0
38.607328578,2051.0
38.624039847,1950.0
38.640751116,2026.0
38.657462385,2041.0
38.674173654,2113.0
38.690884923,2100.0
38.707596192,1980.0
38.724307461,2077.0
38.741018730,2035.0
38.757729999,2077.0
38.774441268,2065.0
38.791152537,2071.0
38.807863806,2129.0
38.824575075,2090.0
38.841286344,1967.0
38.857997613,1984.0
38.874708882,1988.0
38.891420151,2072.0
38.908131420,2091.0
38.924842689,2060.0
38.941553958,2075.0
38.958265227,2021.0
38.974976496,2055.0
38.991687765,2073.0
39.008399034,2013.0
39.025110303,2041.0
39.041821572,1982.0
39.058532841,1980.0
39.075244110,2097.0
39.091955378,2038.0
39.108666647,1987.0
39.125377916,2066.0
39.142089185,2058.0
39.158800454,1947.0
39.175511723,2082.0
39.192222992,1964.0
39.208934261,2032.0
39.225645530,2173.0
39.242356799,1967.0
39.259068068,2041.0
39.275779337,1991.0
39.292490606,2012.0
39.309201875,2105.0
39.325913144,1992.0
39.342624413,2079.0
39.359335682,2018.0
39.376046951,2026.0
39.392758220,2044.0
39.409469489,2026.0
39.426180758,2069.0
39.442892027,1990.0
39.459603296,2061.0
39.476314565,2032.0
39.493025834,2022.0
39.509737103,2075.0
39.526448372,2218.0
39.543159641,2144.0
39.559870910,2115.0
39.576582179,2160.0
39.593293448,2142.0
39.610004717,2172.0
39.626715986,2196.0
39.643427255,2161.0
39.660138524,2185.0
39.676849793,2179.0
39.693561062,2276.0
39.710272331,2325.0
39.726983600,2279.0
39.743694869,2513.0
39.760406138,2373.0
39.777117407,2383.0
39.793828676,2415.0
39.810539945,2243.0
39.827251214,2176.0
39.843962482,2263.0
39.860673751,2258.0
39.877385020,2279.0
39.894096289,2178.0
39.910807558,2205.0
39.927518827,2114.0
39.944230096,2110.0
39.960941365,2083.0
39.977652634,2045.0
39.994363903,2073.0
40.011075172,2057.0
40.027786441,2238.0
40.044497710,2115.0
40.061208979,2119.0
40.077920248,2230.0
40.094631517,2301.0
40.111342786,2231.0
40.128054055,2186.0
40.144765324,2140.0
40.161476593,2117.0
40.178187862,2047.0
40.194899131,2071.0
40.211610400,2108.0
40.228321669,2053.0
40.245032938,2075.0
40.261744207,2036.0
40.278455476,2019.0
40.295166745,2036.0
40.311878014,2019.0
40.328589283,2053.0
40.345300552,2017.0
40.362011821,2024.0
40.378723090,2011.0
40.395434359,2052.0
40.412145628,2068.0
40.428856897,2043.0
40.445568166,2024.0
40.462279435,1956.0
40.478990704,2055.0
40.495701973,1955.0
40.512413242,1954.0
40.529124511,1954.0
40.545835780,1990.0
40.562547049,1959.0
40.579258318,2071.0
40.595969587,1992.0
40.612680855,2081.0
40.629392124,2039.0
40.646103393,1973.0
40.662814662,2010.0
40.679525931,1931.0
40.696237200,1987.0
40.712948469,1995.0
40.729659738,1955.0
40.746371007,1975.0
40.763082276,1945.0
40.779793545,2076.0
40.796504814,2034.0
40.813216083,2029.0
40.829927352,2017.0
40.846638621,2022.0
40.863349890,1919.0
40.880061159,2015.0
40.896772428,1954.0
40.913483697,2047.0
40.930194966,1990.0
40.946906235,2151.0
40.963617504,1979.0
40.980328773,1993.0
40.997040042,2044.0
41.013751311,2023.0
41.030462580,1973.0
41.047173849,2010.0
41.063885118,2012.0
41.080596387,2070.0
41.097307656,2048.0
41.114018925,1979.0
41.130730194,1954.0
41.147441463,2109.0
41.164152732,1975.0
41.180864001,2077.0
41.197575270,1960.0
41.214286539,1979.0
41.230997808,2002.0
41.247709077,1916.0
41.264420346,1974.0
41.281131615,2047.0
41.297842884,2079.0
41.314554153,1949.0
41.331265422,2020.0
41.347976691,2022.0
41.364687959,1998.0
41.381399228,2038.0
41.398110497,2154.0
41.414821766,1954.0
41.431533035,1997.0
41.448244304,2059.0
41.464955573,2002.0
41.481666842,2018.0
41.498378111,2056.0
41.515089380,2092.0
41.531800649,2033.0
41.548511918,2016.0
41.565223187,1998.0
41.581934456,2014.0
41.598645725,2110.0
41.615356994,1927.0
41.632068263,2034.0
41.648779532,2010.0
41.665490801,2030.0
41.682202070,2020.0
41.698913339,1977.0
41.715624608,1990.0
41.732335877,1986.0
41.749047146,2021.0
41.765758415,2056.0
41.782469684,2007.0
41.799180953,2041.0
41.815892222,1975.0
41.832603491,2009.0
41.849314760,1929.0
41.866026029,2014.0
41.882737298,1987.0
41.899448567,1999.0
41.916159836,2014.0
41.932871105,1988.0
41.949582374,2074.0
41.966293643,2037.0
41.983004912,1995.0
41.999716181,1997.0
42.016427450,2045.0
42.033138719,2093.0
42.049849988,1979.0
42.066561257,2039.0
42.083272526,2059.0
42.099983795,1921.0
42.116695064,1994.0
42.133406332,2085.0
42.150117601,2020.0
42.166828870,2009.0
42.183540139,2011.0
42.200251408,1947.0
42.216962677,2011.0
42.233673946,2010.0
42.250385215,2015.0
42.267096484,1936.0
42.283807753,2097.0
42.300519022,1938.0
42.317230291,2030.0
42.333941560,2017.0
42.350652829,2090.0
42.367364098,1976.0
42.384075367,1927.0
42.400786636,1971.0
42.417497905,2100.0
42.434209174,2060.0
42.450920443,2097.0
42.467631712,1954.0
42.484342981,2086.0
42.501054250,2031.0
42.517765519,2018.0
42.534476788,2043.0
42.551188057,2002.0
42.567899326,1980.0
42.584610595,2001.0
42.601321864,2009.0
42.618033133,2047.0
42.634744402,2013.0
42.651455671,2021.0
42.668166940,2067.0
42.684878209,2071.0
42.701589478,2011.0
42.718300747,2082.0
42.735012016,2066.0
42.751723285,2036.0
42.768434554,1987.0
42.785145823,2087.0
42.801857092,2084.0
42.818568361,2041.0
42.835279630,2118.0
42.851990899,2037.0
42.868702168,2042.0
42.885413436,2144.0
42.902124705,2075.0
42.918835974,2079.0
42.935547243,2083.0
42.952258512,2108.0
42.968969781,2093.0
42.985681050,2029.0
43.002392319,2109.0
43.019103588,2159.0
43.035814857,1994.0
43.052526126,2102.0
43.069237395,2122.0
43.085948664,2088.0
43.102659933,2057.0
43.119371202,2141.0
43.136082471,2123.0
43.152793740,2051.0
43.169505009,2194.0
43.186216278,2034.0
43.202927547,2137.0
43.219638816,2092.0
43.236350085,2067.0
43.253061354,2116.0
43.269772623,2142.0
43.286483892,2046.0
43.303195161,2169.0
43.319906430,2155.0
43.336617699,2161.0
43.353328968,2177.0
43.370040237,2194.0
43.386751506,2241.0
43.403462775,2083.0
43.420174044,2133.0
43.436885313,2179.0
43.453596582,2254.0
43.470307851,2277.0
43.487019120,2246.0
43.503730389,2280.0
43.520441658,2272.0
43.537152927,2230.0
43.553864196,2333.0
43.570575465,2294.0
43.587286734,2287.0
43.603998003,2283.0
43.620709272,2265.0
43.637420541,2301.0
43.654131809,2377.0
43.670843078,2481.0
43.687554347,2480.0
43.704265616,2412.0
43.720976885,2506.0
43.737688154,2495.0
43.754399423,2523.0
43.771110692,2486.0
43.787821961,2673.0
43.804533230,2675.0
43.821244499,2829.0
43.837955768,2736.0
43.854667037,2834.0
43.871378306,2954.0
43.888089575,2977.0
43.904800844,2995.0
43.921512113,3005.0
43.938223382,3198.0
43.954934651,3284.0
43.971645920,3436.0
43.988357189,3467.0
44.005068458,3580.0
44.021779727,3695.0
44.038490996,3803.0
44.055202265,3990.0
44.071913534,4128.0
44.088624803,4319.0
44.105336072,4521.0
44.122047341,4686.0
44.138758610,4952.0
44.155469879,5263.0
44.172181148,5400.0
44.188892417,5812.0
44.205603686,6088.0
44.222314955,6471.0
44.239026224,6753.0
44.255737493,7547.0
44.272448762,7919.0
44.289160031,8475.0
44.305871300,9093.0
44.322582569,9183.0
44.339293838,9715.0
44.356005107,10048.0
44.372716376,10247.0
44.389427645,10166.0
44.406138913,10126.0
44.422850182,9998.0
44.439561451,9474.0
44.456272720,9193.0
44.472983989,8462.0
44.489695258,8034.0
44.506406527,7521.0
44.523117796,6857.0
44.539829065,6361.0
44.556540334,5769.0
44.573251603,5265.0
44.589962872,4857.0
44.606674141,4288.0
44.623385410,4021.0
44.640096679,3680.0
44.656807948,3513.0
44.673519217,3338.0
44.690230486,2973.0
44.706941755,2806.0
44.723653024,2771.0
44.740364293,2666.0
44.757075562,2648.0
44.773786831,2610.0
44.790498100,2397.0
44.807209369,2492.0
44.823920638,2372.0
44.840631907,2337.0
44.857343176,2351.0
44.874054445,2371.0
44.890765714,2302.0
44.907476983,2338.0
44.924188252,2322.0
44.940899521,2321.0
44.957610790,2209.0
44.974322059,2339.0
44.991033328,2186.0
45.007744597,2233.0
45.024455866,2197.0
45.041167135,2338.0
45.057878404,2235.0
45.074589673,2204.0
45.091300942,2132.0
45.108012211,2104.0
45.124723480,2086.0
45.141434749,2128.0
45.158146018,2169.0
45.174857286,2123.0
45.191568555,2136.0
45.208279824,2137.0
45.224991093,2128.0
45.241702362,2190.0
45.258413631,2221.0
45.275124900,2185.0
45.291836169,2178.0
45.308547438,2186.0
45.325258707,2228.0
45.341969976,2283.0
45.358681245,2155.0
45.375392514,2269.0
45.392103783,2196.0
45.408815052,2251.0
45.425526321,2180.0
45.442237590,2283.0
45.458948859,2207.0
45.475660128,2235.0
45.492371397,2110.0
45.509082666,2207.0
45.525793935,2140.0
45.542505204,2207.0
45.559216473,2164.0
45.575927742,2136.0
45.592639011,2133.0
45.609350280,2080.0
45.626061549,2084.0
45.642772818,2051.0
45.659484087,2114.0
45.676195356,2102.0
45.692906625,2195.0
45.709617894,2161.0
45.726329163,2158.0
45.743040432,2031.0
45.759751701,2131.0
45.776462970,2098.0
45.793174239,2038.0
45.809885508,2106.0
45.826596777,2076.0
45.843308046,2160.0
45.860019315,2072.0
45.876730584,2137.0
45.893441853,2198.0
45.910153122,2097.0
45.926864390,2126.0
45.943575659,2222.0
45.960286928,2189.0
45.976998197,2215.0
45.993709466,2294.0
46.010420735,2259.0
46.027132004,2413.0
46.043843273,2491.0
46.060554542,2435.0
46.077265811,2741.0
46.093977080,2863.0
46.110688349,3001.0
46.127399618,2963.0
46.144110887,3336.0
46.160822156,3631.0
46.177533425,4025.0
46.194244694,4697.0
46.210955963,5265.0
46.227667232,6222.0
46.244378501,7743.0
46.261089770,8488.0
46.277801039,6724.0
46.294512308,4647.0
46.311223577,4185.0
46.327934846,4014.0
46.344646115,4246.0
46.361357384,4926.0
46.378068653,5386.0
46.394779922,4788.0
46.411491191,3803.0
46.428202460,3214.0
46.444913729,3010.0
46.461624998,3063.0
46.478336267,2878.0
46.495047536,3192.0
46.511758805,3257.0
46.528470074,3264.0
46.545181343,3555.0
46.561892612,3703.0
46.578603881,3699.0
46.595315150,3735.0
46.612026419,3720.0
46.628737688,3810.0
46.645448957,3650.0
46.662160226,3593.0
46.678871495,3548.0
46.695582763,3419.0
46.712294032,3292.0
46.729005301,3054.0
46.745716570,3054.0
46.762427839,2930.0
46.779139108,2775.0
46.795850377,2494.0
46.812561646,2427.0
46.829272915,2418.0
46.845984184,2205.0
46.862695453,2216.0
46.879406722,2149.0
46.896117991,2076.0
46.912829260,2020.0
46.929540529,2013.0
46.946251798,2054.0
46.962963067,2061.0
46.979674336,2022.0
46.996385605,2005.0
47.013096874,1933.0
47.029808143,1998.0
47.046519412,2058.0
47.063230681,1980.0
47.079941950,1965.0
47.096653219,1997.0
47.113364488,2026.0
47.130075757,2012.0
47.146787026,1925.0
47.163498295,2023.0
47.180209564,1921.0
47.196920833,1920.0
47.213632102,1889.0
47.230343371,1903.0
47.247054640,2048.0
47.263765909,1911.0
47.280477178,1971.0
47.297188447,2001.0
47.313899716,1862.0
47.330610985,1942.0
47.347322254,1999.0
47.364033523,1897.0
47.380744792,1945.0
47.397456061,1946.0
47.414167330,1909.0
47.430878599,1965.0
47.447589867,2001.0
47.464301136,1945.0
47.481012405,1925.0
47.497723674,1909.0
47.514434943,1987.0
47.531146212,1963.0
47.547857481,1928.0
47.564568750,1926.0
47.581280019,1906.0
47.597991288,1879.0
47.614702557,1845.0
47.631413826,1880.0
47.648125095,1940.0
47.664836364,2003.0
47.681547633,1964.0
47.698258902,1970.0
47.714970171,1922.0
47.731681440,1986.0
47.748392709,1962.0
47.765103978,1944.0
47.781815247,1950.0
47.798526516,1977.0
47.815237785,1894.0
47.831949054,1945.0
47.848660323,1890.0
47.865371592,1960.0
47.882082861,1920.0
47.898794130,1956.0
47.915505399,1977.0
47.932216668,1906.0
47.948927937,1971.0
47.965639206,1850.0
47.982350475,1993.0
47.999061744,1866.0
48.015773013,1943.0
48.032484282,1945.0
48.049195551,1855.0
48.065906820,1919.0
48.082618089,1938.0
48.099329358,1966.0
48.116040627,1877.0
48.132751896,1851.0
48.149463165,1933.0
48.166174434,1954.0
48.182885703,1959.0
48.199596972,1931.0
48.216308240,1937.0
48.233019509,1941.0
48.249730778,1852.0
48.266442047,1959.0
48.283153316,1981.0
48.299864585,1912.0
48.316575854,1892.0
48.333287123,1917.0
48.349998392,1941.0
48.366709661,1928.0
48.383420930,1956.0
48.400132199,1870.0
48.416843468,1868.0
48.433554737,1860.0
48.450266006,1911.0
48.466977275,1914.0
48.483688544,1870.0
48.500399813,1872.0
48.517111082,1826.0
48.533822351,1890.0
48.550533620,1894.0
48.567244889,1975.0
48.583956158,1877.0
48.600667427,1924.0
48.617378696,1929.0
48.634089965,1976.0
48.650801234,1864.0
48.667512503,1889.0
48.684223772,1975.0
48.700935041,1958.0
48.717646310,1857.0
48.734357579,1863.0
48.751068848,1984.0
48.767780117,1971.0
48.784491386,1917.0
48.801202655,1948.0
48.817913924,1864.0
48.834625193,1917.0
48.851336462,1931.0
48.868047731,1924.0
48.884759000,1941.0
48.901470269,1878.0
48.918181538,1843.0
48.934892807,1904.0
48.951604076,1906.0
48.968315344,1908.0
48.985026613,1891.0
49.001737882,1949.0
49.018449151,1947.0
49.035160420,1899.0
49.051871689,1943.0
49.068582958,1885.0
49.085294227,1882.0
49.102005496,1933.0
49.118716765,1875.0
49.135428034,1887.0
49.152139303,1979.0
49.168850572,1906.0
49.185561841,1834.0
49.202273110,1902.0
49.218984379,1940.0
49.235695648,1899.0
49.252406917,1936.0
49.269118186,1939.0
49.285829455,2041.0
49.302540724,1908.0
49.319251993,1987.0
49.335963262,2000.0
49.352674531,1941.0
49.369385800,1907.0
49.386097069,1907.0
49.402808338,1873.0
49.419519607,1962.0
49.436230876,1985.0
49.452942145,1974.0
49.469653414,2040.0
49.486364683,2003.0
49.503075952,2074.0
49.519787221,2028.0
49.536498490,2095.0
49.553209759,2047.0
49.569921028,2002.0
49.586632297,1972.0
49.603343566,1950.0
49.620054835,1977.0
49.636766104,1982.0
49.653477373,1965.0
49.670188642,1959.0
49.686899911,1979.0
49.703611180,1979.0
49.720322449,1911.0
49.737033717,1940.0
49.753744986,1931.0
49.770456255,1914.0
49.787167524,1894.0
49.803878793,1816.0
49.820590062,2001.0
49.837301331,1968.0
49.854012600,1858.0
49.870723869,1939.0
49.887435138,1910.0
49.904146407,1920.0
49.920857676,1913.0
49.937568945,1881.0
49.954280214,1847.0
49.970991483,1926.0
49.987702752,1936.0
50.004414021,2035.0
50.021125290,1862.0
50.037836559,1850.0
50.054547828,2000.0
50.071259097,1938.0
50.087970366,1871.0
50.104681635,1913.0
50.121392904,1985.0
50.138104173,1960.0
50.154815442,1956.0
50.171526711,1943.0
50.188237980,1889.0
50.204949249,2010.0
50.221660518,1998.0
50.238371787,1949.0
50.255083056,2047.0
50.271794325,2006.0
50.288505594,2026.0
50.305216863,2020.0
50.321928132,2144.0
50.338639401,2050.0
50.355350670,2114.0
50.372061939,2132.0
50.388773208,2145.0
50.405484477,2122.0
50.422195746,2255.0
50.438907015,2133.0
50.455618284,2265.0
50.472329553,2349.0
50.489040821,2230.0
50.505752090,2376.0
50.522463359,2400.0
50.539174628,2382.0
50.555885897,2393.0
50.572597166,2382.0
50.589308435,2372.0
50.606019704,2330.0
50.622730973,2218.0
50.639442242,2241.0
50.656153511,2193.0
50.672864780,2156.0
50.689576049,2059.0
50.706287318,2153.0
50.722998587,2167.0
50.739709856,2087.0
50.756421125,1980.0
50.773132394,2038.0
50.789843663,2036.0
50.806554932,2068.0
50.823266201,1978.0
50.839977470,2038.0
50.856688739,2039.0
50.873400008,2058.0
50.890111277,1955.0
50.906822546,2058.0
50.923533815,2054.0
50.940245084,2026.0
50.956956353,2086.0
50.973667622,2083.0
50.990378891,2085.0
51.007090160,2113.0
51.023801429,2100.0
51.040512698,2024.0
51.057223967,2112.0
51.073935236,2178.0
51.090646505,2153.0
51.107357774,2139.0
51.124069043,2188.0
51.140780312,2239.0
51.157491581,2230.0
51.174202850,2200.0
51.190914119,2269.0
51.207625388,2144.0
51.224336657,2305.0
51.241047926,2270.0
51.257759194,2384.0
51.274470463,2408.0
51.291181732,2375.0
51.307893001,2414.0
51.324604270,2477.0
51.341315539,2594.0
51.358026808,2626.0
51.374738077,2579.0
51.391449346,2623.0
51.408160615,2795.0
51.424871884,2772.0
51.441583153,2978.0
51.458294422,3090.0
51.475005691,3140.0
51.491716960,3223.0
51.508428229,3256.0
51.525139498,3320.0
51.541850767,3444.0
51.558562036,3581.0
51.575273305,3708.0
51.591984574,3911.0
51.608695843,4110.0
51.625407112,4086.0
51.642118381,4173.0
51.658829650,4268.0
51.675540919,4314.0
51.692252188,4462.0
51.708963457,4501.0
51.725674726,4436.0
51.742385995,4360.0
51.759097264,4348.0
51.775808533,4189.0
51.792519802,3911.0
51.809231071,4078.0
51.825942340,3969.0
51.842653609,3790.0
51.859364878,3631.0
51.876076147,3414.0
51.892787416,3269.0
51.909498685,3199.0
51.926209954,3025.0
51.942921223,2884.0
51.959632492,2890.0
51.976343761,2627.0
51.993055030,2675.0
52.009766299,2584.0
52.026477567,2597.0
52.043188836,2385.0
52.059900105,2403.0
52.076611374,2338.0
52.093322643,2258.0
52.110033912,2178.0
52.126745181,2137.0
52.143456450,2210.0
52.160167719,2143.0
52.176878988,2071.0
52.193590257,2156.0
52.210301526,2140.0
52.227012795,1981.0
52.243724064,1985.0
52.260435333,1962.0
52.277146602,1986.0
52.293857871,1996.0
52.310569140,1998.0
52.327280409,1967.0
52.343991678,1897.0
52.360702947,2025.0
52.377414216,1955.0
52.394125485,1968.0
52.410836754,1974.0
52.427548023,1869.0
52.444259292,1962.0
52.460970561,1870.0
52.477681830,1845.0
52.494393099,1958.0
52.511104368,1996.0
52.527815637,1888.0
52.544526906,1870.0
52.561238175,1895.0
52.577949444,1961.0
52.594660713,1866.0
52.611371982,1873.0
52.628083251,1864.0
52.644794520,1814.0
52.661505789,1933.0
52.678217058,1817.0
52.694928327,1904.0
52.711639596,1772.0
52.728350865,1861.0
52.745062134,1818.0
52.761773403,1907.0
52.778484671,1792.0
52.795195940,1937.0
52.811907209,1935.0
52.828618478,1810.0
52.845329747,1861.0
52.862041016,1827.0
52.878752285,1872.0
52.895463554,1823.0
52.912174823,1932.0
52.928886092,1795.0
52.945597361,1830.0
52.962308630,1840.0
52.979019899,1766.0
52.995731168,1791.0
53.012442437,1808.0
53.029153706,1722.0
53.045864975,1844.0
53.062576244,1801.0
53.079287513,1874.0
53.095998782,1889.0
53.112710051,1840.0
53.129421320,1927.0
53.146132589,1763.0
53.162843858,1869.0
53.179555127,1846.0
53.196266396,1939.0
53.212977665,1722.0
53.229688934,1843.0
53.246400203,1837.0
53.263111472,1813.0
53.279822741,1842.0
53.296534010,1790.0
53.313245279,1765.0
53.329956548,1815.0
53.346667817,1881.0
53.363379086,1822.0
53.380090355,1795.0
53.396801624,1784.0
53.413512893,1753.0
53.430224162,1830.0
53.446935431,1849.0
53.463646700,1835.0
53.480357969,1817.0
53.497069238,1850.0
53.513780507,1784.0
53.530491776,1844.0
53.547203044,1798.0
53.563914313,1740.0
53.580625582,1805.0
53.597336851,1832.0
53.614048120,1833.0
53.630759389,1876.0
53.647470658,1835.0
53.664181927,1772.0
53.680893196,1783.0
53.697604465,1806.0
53.714315734,1817.0
53.731027003,1859.0
53.747738272,1838.0
53.764449541,1697.0
53.781160810,1827.0
53.797872079,1822.0
53.814583348,1753.0
53.831294617,1790.0
53.848005886,1843.0
53.864717155,1799.0
53.881428424,1847.0
53.898139693,1838.0
53.914850962,1800.0
53.931562231,1780.0
53.948273500,1818.0
53.964984769,1801.0
53.981696038,1774.0
53.998407307,1777.0
54.015118576,1777.0
54.031829845,1781.0
54.048541114,1725.0
54.065252383,1776.0
54.081963652,1786.0
54.098674921,1852.0
54.115386190,1714.0
54.132097459,1770.0
54.148808728,1876.0
54.165519997,1744.0
54.182231266,1778.0
54.198942535,1739.0
54.215653804,1823.0
54.232365073,1800.0
54.249076342,1753.0
54.265787611,1761.0
54.282498880,1739.0
54.299210148,1727.0
54.315921417,1756.0
54.332632686,1765.0
54.349343955,1730.0
54.366055224,1794.0
54.382766493,1767.0
54.399477762,1772.0
54.416189031,1674.0
54.432900300,1735.0
54.449611569,1819.0
54.466322838,1843.0
54.483034107,1804.0
54.499745376,1791.0
54.516456645,1744.0
54.533167914,1805.0
54.549879183,1786.0
54.566590452,1746.0
54.583301721,1742.0
54.600012990,1820.0
54.616724259,1732.0
54.633435528,1779.0
54.650146797,1805.0
54.666858066,1767.0
54.683569335,1804.0
54.700280604,1838.0
54.716991873,1758.0
54.733703142,1798.0
54.750414411,1766.0
54.767125680,1782.0
54.783836949,1804.0
54.800548218,1851.0
54.817259487,1717.0
54.833970756,1749.0
54.850682025,1741.0
54.867393294,1791.0
54.884104563,1827.0
54.900815832,1694.0
54.917527101,1823.0
54.934238370,1821.0
54.950949639,1847.0
54.967660908,1716.0
54.984372177,1802.0
55.001083446,1642.0
55.017794715,1794.0
55.034505984,1780.0
55.051217253,1765.0
55.067928521,1806.0
55.084639790,1801.0
55.101351059,1826.0
55.118062328,1789.0
55.134773597,1776.0
55.151484866,1708.0
55.168196135,1755.0
55.184907404,1785.0
55.201618673,1706.0
55.218329942,1816.0
55.235041211,1794.0
55.251752480,1808.0
55.268463749,1733.0
55.285175018,1766.0
55.301886287,1774.0
55.318597556,1840.0
55.335308825,1811.0
55.352020094,1780.0
55.368731363,1779.0
55.385442632,1747.0
55.402153901,1772.0
55.418865170,1761.0
55.435576439,1829.0
55.452287708,1716.0
55.468998977,1763.0
55.485710246,1747.0
55.502421515,1704.0
55.519132784,1760.0
55.535844053,1810.0
55.552555322,1750.0
55.569266591,1655.0
55.585977860,1835.0
55.602689129,1667.0
55.619400398,1769.0
55.636111667,1779.0
55.652822936,1768.0
55.669534205,1849.0
55.686245474,1814.0
55.702956743,1774.0
55.719668012,1818.0
55.736379281,1755.0
55.753090550,1793.0
55.769801819,1695.0
55.786513088,1798.0
55.803224357,1784.0
55.819935625,1746.0
55.836646894,1735.0
55.853358163,1815.0
55.870069432,1759.0
55.886780701,1754.0
55.903491970,1734.0
55.920203239,1723.0
55.936914508,1750.0
55.953625777,1730.0
55.970337046,1794.0
55.987048315,1814.0
56.003759584,1729.0
56.020470853,1740.0
56.037182122,1809.0
56.053893391,1820.0
56.070604660,1761.0
56.087315929,1762.0
56.104027198,1868.0
56.120738467,1807.0
56.137449736,1804.0
56.154161005,1783.0
56.170872274,1751.0
56.187583543,1752.0
56.204294812,1702.0
56.221006081,1627.0
56.237717350,1771.0
56.254428619,1788.0
56.271139888,1772.0
56.287851157,1783.0
56.304562426,1844.0
56.321273695,1808.0
56.337984964,1787.0
56.354696233,1712.0
56.371407502,1701.0
56.388118771,1776.0
56.404830040,1641.0
56.421541309,1803.0
56.438252578,1844.0
56.454963847,1806.0
56.471675116,1791.0
56.488386385,1779.0
56.505097654,1746.0
56.521808923,1748.0
56.538520192,1715.0
56.555231461,1755.0
56.571942730,1736.0
56.588653998,1701.0
56.605365267,1752.0
56.622076536,1756.0
56.638787805,1753.0
56.655499074,1784.0
56.672210343,1706.0
56.688921612,1716.0
56.705632881,1747.0
56.722344150,1775.0
56.739055419,1747.0
56.755766688,1800.0
56.772477957,1756.0
56.789189226,1743.0
56.805900495,1716.0
56.822611764,1782.0
56.839323033,1793.0
56.856034302,1734.0
56.872745571,1761.0
56.889456840,1790.0
56.906168109,1830.0
56.922879378,1734.0
56.939590647,1829.0
56.956301916,1786.0
56.973013185,1705.0
56.989724454,1722.0
57.006435723,1769.0
57.023146992,1723.0
57.039858261,1764.0
57.056569530,1748.0
57.073280799,1667.0
57.089992068,1784.0
57.106703337,1743.0
57.123414606,1736.0
57.140125875,1714.0
57.156837144,1831.0
57.173548413,1758.0
57.190259682,1773.0
57.206970951,1825.0
57.223682220,1734.0
57.240393489,1757.0
57.257104758,1725.0
57.273816027,1753.0
57.290527296,1744.0
57.307238565,1747.0
57.323949834,1747.0
57.340661102,1783.0
57.357372371,1794.0
57.374083640,1759.0
57.390794909,1792.0
57.407506178,1696.0
57.424217447,1807.0
57.440928716,1747.0
57.457639985,1799.0
57.474351254,1724.0
57.491062523,1789.0
57.507773792,1671.0
57.524485061,1705.0
57.541196330,1716.0
57.557907599,1746.0
57.574618868,1758.0
57.591330137,1796.0
57.608041406,1865.0
57.624752675,1680.0
57.641463944,1807.0
57.658175213,1833.0
57.674886482,1747.0
57.691597751,1809.0
57.708309020,1755.0
57.725020289,1745.0
57.741731558,1695.0
57.758442827,1770.0
57.775154096,1776.0
57.791865365,1757.0
57.808576634,1801.0
57.825287903,1744.0
57.841999172,1783.0
57.858710441,1752.0
57.875421710,1714.0
57.892132979,1749.0
57.908844248,1684.0
57.925555517,1815.0
57.942266786,1786.0
57.958978055,1724.0
57.975689324,1787.0
57.992400593,1752.0
58.009111862,1759.0
58.025823131,1697.0
58.042534400,1733.0
58.059245669,1760.0
58.075956938,1716.0
58.092668207,1708.0
58.109379475,1704.0
58.126090744,1775.0
58.142802013,1743.0
58.159513282,1781.0
58.176224551,1755.0
58.192935820,1766.0
58.209647089,1830.0
58.226358358,1860.0
58.243069627,1697.0
58.259780896,1759.0
58.276492165,1706.0
58.293203434,1741.0
58.309914703,1788.0
58.326625972,1785.0
58.343337241,1729.0
58.360048510,1754.0
58.376759779,1750.0
58.393471048,1755.0
58.410182317,1777.0
58.426893586,1736.0
58.443604855,1733.0
58.460316124,1682.0
58.477027393,1796.0
58.493738662,1829.0
58.510449931,1711.0
58.527161200,1725.0
58.543872469,1695.0
58.560583738,1773.0
58.577295007,1741.0
58.594006276,1767.0
58.610717545,1745.0
58.627428814,1677.0
58.644140083,1716.0
58.660851352,1795.0
58.677562621,1833.0
58.694273890,1710.0
58.710985159,1706.0
58.727696428,1724.0
58.744407697,1705.0
58.761118966,1708.0
58.777830235,1774.0
58.794541504,1714.0
58.811252773,1711.0
58.827964042,1689.0
58.844675311,1794.0
58.861386579,1792.0
58.878097848,1696.0
58.894809117,1826.0
58.911520386,1792.0
58.928231655,1801.0
58.944942924,1728.0
58.961654193,1750.0
58.978365462,1821.0
58.995076731,1737.0
59.011788000,1739.0
59.028499269,1671.0
59.045210538,1706.0
59.061921807,1792.0
59.078633076,1769.0
59.095344345,1781.0
59.112055614,1779.0
59.128766883,1734.0
59.145478152,1776.0
59.162189421,1757.0
59.178900690,1789.0
59.195611959,1715.0
59.212323228,1776.0
59.229034497,1755.0
59.245745766,1744.0
59.262457035,1743.0
59.279168304,1658.0
59.295879573,1720.0
59.312590842,1817.0
59.329302111,1762.0
59.346013380,1735.0
59.362724649,1808.0
59.379435918,1759.0
59.396147187,1695.0
59.412858456,1759.0
59.429569725,1720.0
59.446280994,1750.0
59.462992263,1740.0
59.479703532,1830.0
59.496414801,1804.0
59.513126070,1806.0
59.529837339,1792.0
59.546548608,1794.0
59.563259877,1771.0
59.579971146,1683.0
59.596682415,1758.0
59.613393684,1802.0
59.630104952,1810.0
59.646816221,1754.0
59.663527490,1745.0
59.680238759,1703.0
59.696950028,1768.0
59.713661297,1781.0
59.730372566,1729.0
59.747083835,1801.0
59.763795104,1771.0
59.780506373,1747.0
59.797217642,1770.0
59.813928911,1763.0
59.830640180,1795.0
59.847351449,1864.0
59.864062718,1785.0
59.880773987,1690.0
59.897485256,1784.0
59.914196525,1756.0
59.930907794,1674.0
59.947619063,1815.0
59.964330332,1714.0
59.981041601,1740.0
59.997752870,1781.0
60.014464139,1742.0
60.031175408,1843.0
60.047886677,1771.0
60.064597946,1821.0
60.081309215,1858.0
60.098020484,1648.0
60.114731753,1753.0
60.131443022,1746.0
60.148154291,1828.0
60.164865560,1729.0
60.181576829,1841.0
60.198288098,1772.0
60.214999367,1749.0
60.231710636,1770.0
60.248421905,1736.0
60.265133174,1796.0
60.281844443,1843.0
60.298555712,1790.0
60.315266981,1748.0
60.331978250,1745.0
60.348689519,1807.0
60.365400788,1716.0
60.382112056,1792.0
60.398823325,1786.0
60.415534594,1750.0
60.432245863,1833.0
60.448957132,1754.0
60.465668401,1760.0
60.482379670,1836.0
60.499090939,1884.0
60.515802208,1719.0
60.532513477,1692.0
60.549224746,1743.0
60.565936015,1710.0
60.582647284,1738.0
60.599358553,1764.0
60.616069822,1793.0
60.632781091,1717.0
60.649492360,1742.0
60.666203629,1793.0
60.682914898,1721.0
60.699626167,1805.0
60.716337436,1731.0
60.733048705,1774.0
60.749759974,1781.0
60.766471243,1792.0
60.783182512,1752.0
60.799893781,1744.0
60.816605050,1735.0
60.833316319,1763.0
60.850027588,1761.0
60.866738857,1753.0
60.883450126,1717.0
60.900161395,1713.0
60.916872664,1710.0
60.933583933,1856.0
60.950295202,1693.0
60.967006471,1803.0
60.983717740,1789.0
61.000429009,1704.0
61.017140278,1840.0
61.033851547,1780.0
61.050562816,1835.0
61.067274085,1727.0
61.083985354,1878.0
61.100696623,1821.0
61.117407892,1766.0
61.134119161,1752.0
61.150830429,1869.0
61.167541698,1786.0
61.184252967,1857.0
61.200964236,1830.0
61.217675505,1744.0
61.234386774,1799.0
61.251098043,1843.0
61.267809312,1753.0
61.284520581,1720.0
61.301231850,1762.0
61.317943119,1758.0
61.334654388,1761.0
61.351365657,1784.0
61.368076926,1934.0
61.384788195,1756.0
61.401499464,1780.0
61.418210733,1819.0
61.434922002,1761.0
61.451633271,1734.0
61.468344540,1755.0
61.485055809,1783.0
61.501767078,1775.0
61.518478347,1721.0
61.535189616,1852.0
61.551900885,1743.0
61.568612154,1695.0
61.585323423,1749.0
61.602034692,1788.0
61.618745961,1811.0
61.635457230,1755.0
61.652168499,1718.0
61.668879768,1696.0
61.685591037,1692.0
61.702302306,1784.0
61.719013575,1733.0
61.735724844,1795.0
61.752436113,1745.0
61.769147382,1786.0
61.785858651,1744.0
61.802569920,1794.0
61.819281189,1764.0
61.835992458,1793.0
61.852703727,1770.0
61.869414996,1757.0
61.886126265,1786.0
61.902837533,1909.0
61.919548802,1765.0
61.936260071,1808.0
61.952971340,1805.0
61.969682609,1829.0
61.986393878,1772.0
62.003105147,1728.0
62.019816416,1707.0
62.036527685,1716.0
62.053238954,1890.0
62.069950223,1757.0
62.086661492,1792.0
62.103372761,1799.0
62.120084030,1853.0
62.136795299,1836.0
62.153506568,1772.0
62.170217837,1803.0
62.186929106,1732.0
62.203640375,1733.0
62.220351644,1731.0
62.237062913,1768.0
62.253774182,1844.0
62.270485451,1792.0
62.287196720,1742.0
62.303907989,1809.0
62.320619258,1780.0
62.337330527,1884.0
62.354041796,1820.0
62.370753065,1843.0
62.387464334,1818.0
62.404175603,1846.0
62.420886872,1765.0
62.437598141,1812.0
62.454309410,1812.0
62.471020679,1826.0
62.487731948,1814.0
62.504443217,1818.0
62.521154486,1779.0
62.537865755,1819.0
62.554577024,1825.0
62.571288293,1786.0
62.587999562,1826.0
62.604710831,1844.0
62.621422100,1737.0
62.638133369,1790.0
62.654844638,1818.0
62.671555906,1880.0
62.688267175,1872.0
62.704978444,1889.0
62.721689713,1836.0
62.738400982,1748.0
62.755112251,1862.0
62.771823520,1810.0
62.788534789,1807.0
62.805246058,1869.0
62.821957327,1848.0
62.838668596,1812.0
62.855379865,1779.0
62.872091134,1878.0
62.888802403,1828.0
62.905513672,1743.0
62.922224941,1868.0
62.938936210,1897.0
62.955647479,1803.0
62.972358748,1826.0
62.989070017,1818.0
63.005781286,1820.0
63.022492555,1796.0
63.039203824,1821.0
63.055915093,1851.0
63.072626362,1758.0
63.089337631,1814.0
63.106048900,1718.0
63.122760169,1832.0
63.139471438,1676.0
63.156182707,1861.0
63.172893976,1819.0
63.189605245,1784.0
63.206316514,1814.0
63.223027783,1826.0
63.239739052,1824.0
63.256450321,1803.0
63.273161590,1853.0
63.289872859,1834.0
63.306584128,1825.0
63.323295397,1824.0
63.340006666,1775.0
63.356717935,1790.0
63.373429204,1853.0
63.390140473,1949.0
63.406851742,1827.0
63.423563010,1867.0
63.440274279,1799.0
63.456985548,1904.0
63.473696817,1785.0
63.490408086,1715.0
63.507119355,1821.0
63.523830624,1805.0
63.540541893,1881.0
63.557253162,1882.0
63.573964431,1843.0
63.590675700,1815.0
63.607386969,1843.0
63.624098238,1835.0
63.640809507,1852.0
63.657520776,1775.0
63.674232045,1929.0
63.690943314,1854.0
63.707654583,1873.0
63.724365852,1790.0
63.741077121,1899.0
63.757788390,1865.0
63.774499659,1795.0
63.791210928,1774.0
63.807922197,1811.0
63.824633466,1840.0
63.841344735,1822.0
63.858056004,1888.0
63.874767273,1893.0
63.891478542,1859.0
63.908189811,1788.0
63.924901080,1880.0
63.941612349,1870.0
63.958323618,1879.0
63.975034887,1787.0
63.991746156,1898.0
64.008457425,1865.0
64.025168694,1846.0
64.041879963,1869.0
64.058591232,1845.0
64.075302501,1794.0
64.092013770,1845.0
64.108725039,1883.0
64.125436308,1864.0
64.142147577,1884.0
64.158858846,1838.0
64.175570115,1841.0
64.192281383,1889.0
64.208992652,1808.0
64.225703921,1912.0
64.242415190,1880.0
64.259126459,1820.0
64.275837728,1864.0
64.292548997,1849.0
64.309260266,1852.0
64.325971535,1885.0
64.342682804,1890.0
64.359394073,1833.0
64.376105342,1882.0
64.392816611,1850.0
64.409527880,1895.0
64.426239149,1902.0
64.442950418,1867.0
64.459661687,1836.0
64.476372956,1925.0
64.493084225,1920.0
64.509795494,1870.0
64.526506763,1834.0
64.543218032,1956.0
64.559929301,1890.0
64.576640570,1849.0
64.593351839,1946.0
64.610063108,1901.0
64.626774377,1939.0
64.643485646,1984.0
64.660196915,1798.0
64.676908184,1790.0
64.693619453,1893.0
64.710330722,1903.0
64.727041991,1905.0
64.743753260,1913.0
64.760464529,1851.0
64.777175798,1952.0
64.793887067,1801.0
64.810598336,1913.0
64.827309605,1855.0
64.844020874,1876.0
64.860732143,1909.0
64.877443412,1850.0
64.894154681,1830.0
64.910865950,1861.0
64.927577219,1903.0
64.944288487,1814.0
64.960999756,1896.0
64.977711025,1837.0
64.994422294,1861.0
65.011133563,1946.0
65.027844832,1958.0
65.044556101,1838.0
65.061267370,1935.0
65.077978639,1812.0
65.094689908,1908.0
65.111401177,1938.0
65.128112446,1850.0
65.144823715,1837.0
65.161534984,1895.0
65.178246253,1986.0
65.194957522,1857.0
65.211668791,1843.0
65.228380060,1862.0
65.245091329,1927.0
65.261802598,1889.0
65.278513867,1957.0
65.295225136,1904.0
65.311936405,1930.0
65.328647674,1815.0
65.345358943,1885.0
65.362070212,1825.0
65.378781481,1899.0
65.395492750,1800.0
65.412204019,1906.0
65.428915288,1974.0
65.445626557,1929.0
65.462337826,1821.0
65.479049095,1925.0
65.495760364,1948.0
65.512471633,1852.0
65.529182902,1931.0
65.545894171,1881.0
65.562605440,1933.0
65.579316709,1899.0
65.596027978,1926.0
65.612739247,1907.0
65.629450516,1947.0
65.646161785,1918.0
65.662873054,1894.0
65.679584323,1864.0
65.696295592,1833.0
65.713006860,1966.0
65.729718129,1915.0
65.746429398,1901.0
65.763140667,1897.0
65.779851936,1912.0
65.796563205,1970.0
65.813274474,1955.0
65.829985743,1933.0
65.846697012,1920.0
65.863408281,1877.0
65.880119550,1797.0
65.896830819,1878.0
65.913542088,1922.0
65.930253357,1868.0
65.946964626,1907.0
65.963675895,1929.0
65.980387164,1875.0
65.997098433,1796.0
66.013809702,1930.0
66.030520971,1840.0
66.047232240,1934.0
66.063943509,1857.0
66.080654778,1839.0
66.097366047,1843.0
66.114077316,1858.0
66.130788585,1959.0
66.147499854,1907.0
66.164211123,1890.0
66.180922392,1942.0
66.197633661,1919.0
66.214344930,1930.0
66.231056199,1898.0
66.247767468,1896.0
66.264478737,1884.0
66.281190006,1850.0
66.297901275,1853.0
66.314612544,1959.0
66.331323813,1855.0
66.348035082,1846.0
66.364746351,1899.0
66.381457620,1911.0
66.398168889,1894.0
66.414880158,1948.0
66.431591427,1951.0
66.448302696,1842.0
66.465013964,1952.0
66.481725233,1825.0
66.498436502,1908.0
66.515147771,1915.0
66.531859040,1845.0
66.548570309,1936.0
66.565281578,1903.0
66.581992847,1941.0
66.598704116,1920.0
66.615415385,1882.0
66.632126654,1869.0
66.648837923,1882.0
66.665549192,1981.0
66.682260461,1977.0
66.698971730,1949.0
66.715682999,1895.0
66.732394268,1888.0
66.749105537,1981.0
66.765816806,1986.0
66.782528075,1950.0
66.799239344,1777.0
66.815950613,1911.0
66.832661882,1922.0
66.849373151,1895.0
66.866084420,1956.0
66.882795689,1910.0
66.899506958,1997.0
66.916218227,1915.0
66.932929496,1861.0
66.949640765,1925.0
66.966352034,1847.0
66.983063303,1945.0
66.999774572,1904.0
67.016485841,1919.0
67.033197110,1848.0
67.049908379,1948.0
67.066619648,1887.0
67.083330917,1880.0
67.100042186,2016.0
67.116753455,1961.0
67.133464724,1984.0
67.150175993,1889.0
67.166887262,1888.0
67.183598531,1863.0
67.200309800,1994.0
67.217021069,1933.0
67.233732337,1901.0
67.250443606,1841.0
67.267154875,1945.0
67.283866144,1870.0
67.300577413,1881.0
67.317288682,1878.0
67.333999951,1896.0
67.350711220,1938.0
67.367422489,1981.0
67.384133758,1994.0
67.400845027,1873.0
67.417556296,1909.0
67.434267565,1933.0
67.450978834,1935.0
67.467690103,1918.0
67.484401372,1975.0
67.501112641,1870.0
67.517823910,1894.0
67.534535179,1955.0
67.551246448,1915.0
67.567957717,1948.0
67.584668986,1719.0
67.601380255,1963.0
67.618091524,1812.0
67.634802793,1906.0
67.651514062,1849.0
67.668225331,1879.0
67.684936600,1919.0
67.701647869,1864.0
67.718359138,1942.0
67.735070407,1958.0
67.751781676,1911.0
67.768492945,1903.0
67.785204214,1838.0
67.801915483,1890.0
67.818626752,1897.0
67.835338021,1934.0
67.852049290,1981.0
67.868760559,1976.0
67.885471828,1921.0
67.902183097,1863.0
67.918894366,1918.0
67.935605635,1897.0
67.952316904,1878.0
67.969028173,1974.0
67.985739441,1898.0
68.002450710,1922.0
68.019161979,1915.0
68.035873248,1943.0
68.052584517,1916.0
68.069295786,1947.0
68.086007055,1969.0
68.102718324,1913.0
68.119429593,1957.0
68.136140862,1839.0
68.152852131,1913.0
68.169563400,1944.0
68.186274669,1827.0
68.202985938,1879.0
68.219697207,1856.0
68.236408476,1954.0
68.253119745,1904.0
68.269831014,1950.0
68.286542283,1949.0
68.303253552,1852.0
68.319964821,1930.0
68.336676090,1928.0
68.353387359,2003.0
68.370098628,1950.0
68.386809897,1859.0
68.403521166,1890.0
68.420232435,1875.0
68.436943704,1912.0
68.453654973,1812.0
68.470366242,1944.0
68.487077511,1935.0
68.503788780,1931.0
68.520500049,1881.0
68.537211318,1840.0
68.553922587,1890.0
68.570633856,1864.0
68.587345125,1861.0
68.604056394,1807.0
68.620767663,1926.0
68.637478932,1845.0
68.654190201,1914.0
68.670901470,1930.0
68.687612739,1774.0
68.704324008,1867.0
68.721035277,1887.0
68.737746546,1924.0
68.754457814,1878.0
68.771169083,1855.0
68.787880352,1852.0
68.804591621,1928.0
68.821302890,1824.0
68.838014159,1837.0
68.854725428,1887.0
68.871436697,1837.0
68.888147966,1867.0
68.904859235,1904.0
68.921570504,1879.0
68.938281773,1819.0
68.954993042,1963.0
68.971704311,1989.0
68.988415580,1927.0
69.005126849,1925.0
69.021838118,1921.0
69.038549387,1997.0
69.055260656,1879.0
69.071971925,1837.0
69.088683194,1877.0
69.105394463,1804.0
69.122105732,1966.0
69.138817001,1834.0
69.155528270,1945.0
69.172239539,1839.0
69.188950808,1926.0
69.205662077,1834.0
69.222373346,1949.0
69.239084615,1918.0
69.255795884,1850.0
69.272507153,1823.0
69.289218422,1938.0
69.305929691,1903.0
69.322640960,1892.0
69.339352229,1855.0
69.356063498,1843.0
69.372774767,1899.0
69.389486036,1833.0
69.406197305,1811.0
69.422908574,1850.0
69.439619843,1820.0
69.456331112,1870.0
69.473042381,1992.0
69.489753650,1827.0
69.506464919,1801.0
69.523176187,1890.0
69.539887456,1849.0
69.556598725,1887.0
69.573309994,1932.0
69.590021263,1802.0
69.606732532,1785.0
69.623443801,1845.0
69.640155070,1900.0
69.656866339,1840.0
69.673577608,1862.0
69.690288877,1878.0
69.707000146,1808.0
69.723711415,1811.0
69.740422684,1893.0
69.757133953,1865.0
69.773845222,1826.0
69.790556491,1825.0
69.807267760,1789.0
69.823979029,1882.0
69.840690298,1808.0
69.857401567,1880.0
69.874112836,1915.0
69.890824105,1883.0
69.907535374,1880.0
69.924246643,1883.0
69.940957912,1838.0
69.957669181,1818.0
69.974380450,1914.0
69.991091719,1894.0
70.007802988,1924.0
70.024514257,1858.0
70.041225526,1805.0
70.057936795,1833.0
70.074648064,1864.0
70.091359333,1878.0
70.108070602,1832.0
70.124781871,1830.0
70.141493140,1895.0
70.158204409,1785.0
70.174915678,1840.0
70.191626947,1840.0
70.208338216,1839.0
70.225049485,1806.0
70.241760754,1846.0
70.258472023,1849.0
70.275183291,1775.0
70.291894560,1932.0
70.308605829,1889.0
70.325317098,1797.0
70.342028367,1870.0
70.358739636,1741.0
70.375450905,1879.0
70.392162174,1829.0
70.408873443,1853.0
70.425584712,1855.0
70.442295981,1828.0
70.459007250,1809.0
70.475718519,1820.0
70.492429788,1811.0
70.509141057,1862.0
70.525852326,1896.0
70.542563595,1839.0
70.559274864,1931.0
70.575986133,1889.0
70.592697402,1910.0
70.609408671,1756.0
70.626119940,1844.0
70.642831209,1869.0
70.659542478,1855.0
70.676253747,1939.0
70.692965016,1964.0
70.709676285,1945.0
70.726387554,1777.0
70.743098823,1833.0
70.759810092,1867.0
70.776521361,1882.0
70.793232630,1873.0
70.809943899,1858.0
70.826655168,1767.0
70.843366437,1840.0
70.860077706,1765.0
70.876788975,1772.0
70.893500244,1778.0
70.910211513,1857.0
70.926922782,1920.0
70.943634051,1823.0
70.960345320,1728.0
70.977056589,1838.0
70.993767858,1821.0
71.010479127,1889.0
71.027190396,1778.0
71.043901664,1919.0
71.060612933,1804.0
71.077324202,1790.0
71.094035471,1883.0
71.110746740,1773.0
71.127458009,1819.0
71.144169278,1833.0
71.160880547,1778.0
71.177591816,1818.0
71.194303085,1841.0
71.211014354,1783.0
71.227725623,1773.0
71.244436892,1803.0
71.261148161,1829.0
71.277859430,1832.0
71.294570699,1774.0
71.311281968,1804.0
71.327993237,1751.0
71.344704506,1727.0
71.361415775,1814.0
71.378127044,1779.0
71.394838313,1758.0
71.411549582,1826.0
71.428260851,1835.0
71.444972120,1770.0
71.461683389,1786.0
71.478394658,1792.0
71.495105927,1858.0
71.511817196,1831.0
71.528528465,1846.0
71.545239734,1804.0
71.561951003,1877.0
71.578662272,1827.0
71.595373541,1773.0
71.612084810,1781.0
71.628796079,1763.0
71.645507348,1738.0
71.662218617,1799.0
71.678929886,1843.0
71.695641155,1670.0
71.712352424,1888.0
71.729063693,1813.0
71.745774962,1835.0
71.762486231,1773.0
71.779197500,1806.0
71.795908768,1747.0
71.812620037,1758.0
71.829331306,1796.0
71.846042575,1842.0
71.862753844,1743.0
71.879465113,1757.0
71.896176382,1875.0
71.912887651,1819.0
71.929598920,1791.0
71.946310189,1842.0
71.963021458,1774.0
71.979732727,1842.0
71.996443996,1802.0
72.013155265,1835.0
72.029866534,1748.0
72.046577803,1803.0
72.063289072,1776.0
72.080000341,1672.0
72.096711610,1733.0
72.113422879,1811.0
72.130134148,1796.0
72.146845417,1792.0
72.163556686,1764.0
72.180267955,1803.0
72.196979224,1764.0
72.213690493,1811.0
72.230401762,1806.0
72.247113031,1781.0
72.263824300,1780.0
72.280535569,1904.0
72.297246838,1818.0
72.313958107,1708.0
72.330669376,1836.0
72.347380645,1793.0
72.364091914,1760.0
72.380803183,1748.0
72.397514452,1746.0
72.414225721,1759.0
72.430936990,1792.0
72.447648259,1681.0
72.464359528,1798.0
72.481070797,1819.0
72.497782066,1746.0
72.514493335,1732.0
72.531204604,1702.0
72.547915873,1738.0
72.564627141,1689.0
72.581338410,1752.0
72.598049679,1791.0
72.614760948,1730.0
72.631472217,1761.0
72.648183486,1801.0
72.664894755,1691.0
72.681606024,1665.0
72.698317293,1692.0
72.715028562,1830.0
72.731739831,1829.0
72.748451100,1729.0
72.765162369,1775.0
72.781873638,1791.0
72.798584907,1812.0
72.815296176,1718.0
72.832007445,1739.0
72.848718714,1851.0
72.865429983,1804.0
72.882141252,1749.0
72.898852521,1807.0
72.915563790,1742.0
72.932275059,1687.0
72.948986328,1757.0
72.965697597,1789.0
72.982408866,1683.0
72.999120135,1682.0
73.015831404,1760.0
73.032542673,1691.0
73.049253942,1728.0
73.065965211,1673.0
73.082676480,1742.0
73.099387749,1708.0
73.116099018,1735.0
73.132810287,1767.0
73.149521556,1726.0
73.166232825,1782.0
73.182944094,1745.0
73.199655363,1752.0
73.216366632,1794.0
73.233077901,1735.0
73.249789170,1735.0
73.266500439,1784.0
73.283211708,1712.0
73.299922977,1736.0
73.316634245,1735.0
73.333345514,1762.0
73.350056783,1748.0
73.366768052,1738.0
73.383479321,1768.0
73.400190590,1796.0
73.416901859,1682.0
73.433613128,1789.0
73.450324397,1709.0
73.467035666,1687.0
73.483746935,1794.0
73.500458204,1734.0
73.517169473,1755.0
73.533880742,1748.0
73.550592011,1764.0
73.567303280,1724.0
73.584014549,1691.0
73.600725818,1756.0
73.617437087,1725.0
73.634148356,1766.0
73.650859625,1724.0
73.667570894,1693.0
73.684282163,1688.0
73.700993432,1783.0
73.717704701,1685.0
73.734415970,1761.0
73.751127239,1804.0
73.767838508,1697.0
73.784549777,1741.0
73.801261046,1726.0
73.817972315,1725.0
73.834683584,1710.0
73.851394853,1755.0
73.868106122,1746.0
73.884817391,1769.0
73.901528660,1686.0
73.918239929,1726.0
73.934951198,1753.0
73.951662467,1742.0
73.968373736,1633.0
73.985085005,1725.0
74.001796274,1694.0
74.018507543,1706.0
74.035218812,1705.0
74.051930081,1676.0
74.068641350,1742.0
74.085352618,1727.0
74.102063887,1701.0
74.118775156,1686.0
74.135486425,1732.0
74.152197694,1694.0
74.168908963,1763.0
74.185620232,1717.0
74.202331501,1699.0
74.219042770,1729.0
74.235754039,1644.0
74.252465308,1708.0
74.269176577,1720.0
74.285887846,1686.0
74.302599115,1664.0
74.319310384,1706.0
74.336021653,1783.0
74.352732922,1709.0
74.369444191,1775.0
74.386155460,1704.0
74.402866729,1697.0
74.419577998,1712.0
74.436289267,1653.0
74.453000536,1662.0
74.469711805,1707.0
74.486423074,1690.0
74.503134343,1648.0
74.519845612,1676.0
74.536556881,1664.0
74.553268150,1710.0
74.569979419,1708.0
74.586690688,1684.0
74.603401957,1691.0
74.620113226,1742.0
74.636824495,1679.0
74.653535764,1789.0
74.670247033,1639.0
74.686958302,1631.0
74.703669571,1684.0
74.720380840,1721.0
74.737092109,1626.0
74.753803378,1635.0
74.770514647,1751.0
74.787225916,1671.0
74.803937185,1752.0
74.820648454,1700.0
74.837359722,1664.0
74.854070991,1678.0
74.870782260,1645.0
74.887493529,1749.0
74.904204798,1684.0
74.920916067,1705.0
74.937627336,1712.0
74.954338605,1706.0
74.971049874,1709.0
74.987761143,1657.0
75.004472412,1701.0
75.021183681,1645.0
75.037894950,1707.0
75.054606219,1667.0
75.071317488,1688.0
75.088028757,1667.0
75.104740026,1711.0
75.121451295,1753.0
75.138162564,1666.0
75.154873833,1700.0
75.171585102,1696.0
75.188296371,1737.0
75.205007640,1704.0
75.221718909,1719.0
75.238430178,1647.0
75.255141447,1705.0
75.271852716,1702.0
75.288563985,1695.0
75.305275254,1647.0
75.321986523,1720.0
75.338697792,1715.0
75.355409061,1692.0
75.372120330,1730.0
75.388831599,1768.0
75.405542868,1780.0
75.422254137,1797.0
75.438965406,1694.0
75.455676675,1765.0
75.472387944,1779.0
75.489099213,1841.0
75.505810482,1788.0
75.522521751,1806.0
75.539233020,1819.0
75.555944289,1795.0
75.572655558,1663.0
75.589366827,1820.0
75.606078095,1753.0
75.622789364,1756.0
75.639500633,1814.0
75.656211902,1796.0
75.672923171,1848.0
75.689634440,1735.0
75.706345709,1855.0
75.723056978,1815.0
75.739768247,1906.0
75.756479516,1834.0
75.773190785,1871.0
75.789902054,1944.0
75.806613323,1881.0
75.823324592,1817.0
75.840035861,1939.0
75.856747130,1830.0
75.873458399,1931.0
75.890169668,1911.0
75.906880937,1964.0
75.923592206,1957.0
75.940303475,1998.0
75.957014744,1978.0
75.973726013,1998.0
75.990437282,2086.0
76.007148551,2090.0
76.023859820,2106.0
76.040571089,2088.0
76.057282358,2121.0
76.073993627,2197.0
76.090704896,2241.0
76.107416165,2158.0
76.124127434,2199.0
76.140838703,2353.0
76.157549972,2262.0
76.174261241,2345.0
76.190972510,2250.0
76.207683779,2212.0
76.224395048,2198.0
76.241106317,2240.0
76.257817586,2197.0
76.274528855,2191.0
76.291240124,2095.0
76.307951393,2177.0
76.324662662,2104.0
76.341373931,2098.0
76.358085199,2043.0
76.374796468,1973.0
76.391507737,2022.0
76.408219006,2000.0
76.424930275,1981.0
76.441641544,1940.0
76.458352813,1954.0
76.475064082,1928.0
76.491775351,1898.0
76.508486620,1853.0
76.525197889,1858.0
76.541909158,1837.0
76.558620427,1809.0
76.575331696,1724.0
76.592042965,1779.0
76.608754234,1786.0
76.625465503,1743.0
76.642176772,1796.0
76.658888041,1799.0
76.675599310,1690.0
76.692310579,1714.0
76.709021848,1750.0
76.725733117,1723.0
76.742444386,1704.0
76.759155655,1722.0
76.775866924,1661.0
76.792578193,1593.0
76.809289462,1679.0
76.826000731,1651.0
76.842712000,1657.0
76.859423269,1656.0
76.876134538,1628.0
76.892845807,1605.0
76.909557076,1681.0
76.926268345,1601.0
76.942979614,1665.0
76.959690883,1634.0
76.976402152,1657.0
76.993113421,1580.0
77.009824690,1537.0
77.026535959,1602.0
77.043247228,1587.0
77.059958497,1525.0
77.076669766,1546.0
77.093381035,1559.0
77.110092304,1670.0
77.126803572,1621.0
77.143514841,1651.0
77.160226110,1554.0
77.176937379,1584.0
77.193648648,1642.0
77.210359917,1475.0
77.227071186,1530.0
77.243782455,1592.0
77.260493724,1624.0
77.277204993,1572.0
77.293916262,1528.0
77.310627531,1664.0
77.327338800,1545.0
77.344050069,1604.0
77.360761338,1592.0
77.377472607,1537.0
77.394183876,1594.0
77.410895145,1581.0
77.427606414,1598.0
77.444317683,1558.0
77.461028952,1672.0
77.477740221,1582.0
77.494451490,1550.0
77.511162759,1536.0
77.527874028,1621.0
77.544585297,1622.0
77.561296566,1518.0
77.578007835,1496.0
77.594719104,1636.0
77.611430373,1590.0
77.628141642,1604.0
77.644852911,1552.0
77.661564180,1509.0
77.678275449,1561.0
77.694986718,1548.0
77.711697987,1521.0
77.728409256,1571.0
77.745120525,1544.0
77.761831794,1536.0
77.778543063,1542.0
77.795254332,1554.0
77.811965601,1568.0
77.828676870,1547.0
77.845388139,1574.0
77.862099408,1509.0
77.878810676,1573.0
77.895521945,1569.0
77.912233214,1554.0
77.928944483,1598.0
77.945655752,1564.0
77.962367021,1566.0
77.979078290,1499.0
77.995789559,1515.0
78.012500828,1506.0
78.029212097,1533.0
78.045923366,1588.0
78.062634635,1579.0
78.079345904,1557.0
78.096057173,1549.0
78.112768442,1464.0
78.129479711,1540.0
78.146190980,1551.0
78.162902249,1533.0
78.179613518,1612.0
78.196324787,1507.0
78.213036056,1530.0
78.229747325,1515.0
78.246458594,1559.0
78.263169863,1593.0
78.279881132,1565.0
78.296592401,1557.0
78.313303670,1494.0
78.330014939,1647.0
78.346726208,1496.0
78.363437477,1545.0
78.380148746,1568.0
78.396860015,1545.0
78.413571284,1545.0
78.430282553,1490.0
78.446993822,1528.0
78.463705091,1487.0
78.480416360,1597.0
78.497127629,1556.0
78.513838898,1500.0
78.530550167,1474.0
78.547261436,1545.0
78.563972705,1468.0
78.580683974,1549.0
78.597395243,1566.0
78.614106512,1576.0
78.630817781,1508.0
78.647529049,1448.0
78.664240318,1494.0
78.680951587,1550.0
78.697662856,1509.0
78.714374125,1554.0
78.731085394,1527.0
78.747796663,1517.0
78.764507932,1484.0
78.781219201,1507.0
78.797930470,1511.0
78.814641739,1496.0
78.831353008,1540.0
78.848064277,1635.0
78.864775546,1492.0
78.881486815,1533.0
78.898198084,1528.0
78.914909353,1541.0
78.931620622,1571.0
78.948331891,1577.0
78.965043160,1542.0
78.981754429,1472.0
78.998465698,1598.0
79.015176967,1518.0
79.031888236,1545.0
79.048599505,1534.0
79.065310774,1514.0
79.082022043,1519.0
79.098733312,1498.0
79.115444581,1577.0
79.132155850,1549.0
79.148867119,1546.0
79.165578388,1527.0
79.182289657,1457.0
79.199000926,1558.0
79.215712195,1494.0
79.232423464,1508.0
79.249134733,1502.0
79.265846002,1459.0
79.282557271,1505.0
79.299268540,1545.0
79.315979809,1482.0
79.332691078,1507.0
79.349402347,1501.0
79.366113616,1495.0
79.382824885,1507.0
79.399536153,1466.0
79.416247422,1645.0
79.432958691,1516.0
79.449669960,1422.0
79.466381229,1553.0
79.483092498,1478.0
79.499803767,1490.0
79.516515036,1472.0
79.533226305,1536.0
79.549937574,1549.0
79.566648843,1462.0
79.583360112,1467.0
79.600071381,1496.0
79.616782650,1469.0
79.633493919,1475.0
79.650205188,1511.0
79.666916457,1478.0
79.683627726,1490.0
79.700338995,1391.0
79.717050264,1494.0
79.733761533,1496.0
79.750472802,1476.0
79.767184071,1401.0
79.783895340,1547.0
79.800606609,1484.0
79.817317878,1457.0
79.834029147,1518.0
79.850740416,1433.0
79.867451685,1477.0
79.884162954,1511.0
79.900874223,1459.0
79.917585492,1488.0
79.934296761,1486.0
79.951008030,1507.0
79.967719299,1486.0
79.984430568,1483.0
80.001141837,1481.0
80.017853106,1424.0
80.034564375,1532.0
80.051275644,1510.0
80.067986913,1443.0
80.084698182,1477.0
80.101409451,1553.0
80.118120720,1458.0
80.134831989,1508.0
80.151543258,1464.0
80.168254526,1506.0
80.184965795,1428.0
80.201677064,1435.0
80.218388333,1500.0
80.235099602,1489.0
80.251810871,1446.0
80.268522140,1430.0
80.285233409,1456.0
80.301944678,1521.0
80.318655947,1501.0
80.335367216,1442.0
80.352078485,1462.0
80.368789754,1498.0
80.385501023,1504.0
80.402212292,1457.0
80.418923561,1439.0
80.435634830,1499.0
80.452346099,1455.0
80.469057368,1422.0
80.485768637,1471.0
80.502479906,1437.0
80.519191175,1392.0
80.535902444,1446.0
80.552613713,1476.0
80.569324982,1442.0
80.586036251,1490.0
80.602747520,1516.0
80.619458789,1433.0
80.636170058,1424.0
80.652881327,1385.0
80.669592596,1485.0
80.686303865,1451.0
80.703015134,1404.0
80.719726403,1421.0
80.736437672,1466.0
80.753148941,1549.0
80.769860210,1465.0
80.786571479,1451.0
80.803282748,1447.0
80.819994017,1484.0
80.836705286,1506.0
80.853416555,1459.0
80.870127824,1461.0
80.886839093,1468.0
80.903550362,1436.0
80.920261630,1429.0
80.936972899,1339.0
80.953684168,1523.0
80.970395437,1463.0
80.987106706,1473.0
81.003817975,1430.0
81.020529244,1519.0
81.037240513,1422.0
81.053951782,1454.0
81.070663051,1440.0
81.087374320,1511.0
81.104085589,1554.0
81.120796858,1551.0
81.137508127,1454.0
81.154219396,1514.0
81.170930665,1494.0
81.187641934,1441.0
81.204353203,1448.0
81.221064472,1493.0
81.237775741,1502.0
81.254487010,1471.0
81.271198279,1409.0
81.287909548,1456.0
81.304620817,1436.0
81.321332086,1359.0
81.338043355,1418.0
81.354754624,1413.0
81.371465893,1530.0
81.388177162,1410.0
81.404888431,1353.0
81.421599700,1449.0
81.438310969,1465.0
81.455022238,1403.0
81.471733507,1456.0
81.488444776,1503.0
81.505156045,1476.0
81.521867314,1467.0
81.538578583,1531.0
81.555289852,1409.0
81.572001121,1391.0
81.588712390,1484.0
81.605423659,1458.0
81.622134928,1374.0
81.638846197,1413.0
81.655557466,1509.0
81.672268735,1387.0
81.688980003,1424.0
81.705691272,1479.0
81.722402541,1559.0
81.739113810,1369.0
81.755825079,1502.0
81.772536348,1356.0
81.789247617,1474.0
81.805958886,1485.0
81.822670155,1449.0
81.839381424,1511.0
81.856092693,1426.0
81.872803962,1425.0
81.889515231,1478.0
81.906226500,1401.0
81.922937769,1491.0
81.939649038,1457.0
81.956360307,1448.0
81.973071576,1432.0
81.989782845,1435.0
82.006494114,1488.0
82.023205383,1403.0
82.039916652,1458.0
82.056627921,1475.0
82.073339190,1462.0
82.090050459,1428.0
82.106761728,1402.0
82.123472997,1447.0
82.140184266,1476.0
82.156895535,1499.0
82.173606804,1435.0
82.190318073,1448.0
82.207029342,1459.0
82.223740611,1400.0
82.240451880,1516.0
82.257163149,1455.0
82.273874418,1361.0
82.290585687,1375.0
82.307296956,1399.0
82.324008225,1412.0
82.340719494,1373.0
82.357430763,1511.0
82.374142032,1493.0
82.390853301,1468.0
82.407564570,1464.0
82.424275839,1429.0
82.440987107,1511.0
82.457698376,1464.0
82.474409645,1442.0
82.491120914,1462.0
82.507832183,1457.0
82.524543452,1444.0
82.541254721,1432.0
82.557965990,1412.0
82.574677259,1485.0
82.591388528,1489.0
82.608099797,1389.0
82.624811066,1429.0
82.641522335,1379.0
82.658233604,1401.0
82.674944873,1501.0
82.691656142,1430.0
82.708367411,1421.0
82.725078680,1440.0
82.741789949,1474.0
82.758501218,1404.0
82.775212487,1402.0
82.791923756,1361.0
82.808635025,1423.0
82.825346294,1423.0
82.842057563,1413.0
82.858768832,1407.0
82.875480101,1475.0
82.892191370,1406.0
82.908902639,1465.0
82.925613908,1383.0
82.942325177,1398.0
82.959036446,1429.0
82.975747715,1411.0
82.992458984,1461.0
83.009170253,1460.0
83.025881522,1342.0
83.042592791,1412.0
83.059304060,1353.0
83.076015329,1391.0
83.092726598,1369.0
83.109437867,1400.0
83.126149136,1438.0
83.142860405,1427.0
83.159571674,1403.0
83.176282943,1453.0
83.192994212,1399.0
83.209705480,1345.0
83.226416749,1412.0
83.243128018,1365.0
83.259839287,1397.0
83.276550556,1357.0
83.293261825,1418.0
83.309973094,1387.0
83.326684363,1377.0
83.343395632,1445.0
83.360106901,1403.0
83.376818170,1415.0
83.393529439,1416.0
83.410240708,1401.0
83.426951977,1429.0
83.443663246,1413.0
83.460374515,1376.0
83.477085784,1356.0
83.493797053,1444.0
83.510508322,1387.0
83.527219591,1391.0
83.543930860,1442.0
83.560642129,1419.0
83.577353398,1380.0
83.594064667,1355.0
83.610775936,1425.0
83.627487205,1393.0
83.644198474,1390.0
83.660909743,1359.0
83.677621012,1430.0
83.694332281,1444.0
83.711043550,1400.0
83.727754819,1435.0
83.744466088,1391.0
83.761177357,1413.0
83.777888626,1433.0
83.794599895,1412.0
83.811311164,1410.0
83.828022433,1334.0
83.844733702,1375.0
83.861444971,1391.0
83.878156240,1441.0
83.894867509,1351.0
83.911578778,1435.0
83.928290047,1406.0
83.945001316,1412.0
83.961712584,1369.0
83.978423853,1413.0
83.995135122,1439.0
84.011846391,1436.0
84.028557660,1425.0
84.045268929,1302.0
84.061980198,1322.0
84.078691467,1363.0
84.095402736,1442.0
84.112114005,1378.0
84.128825274,1401.0
84.145536543,1394.0
84.162247812,1372.0
84.178959081,1390.0
84.195670350,1387.0
84.212381619,1374.0
84.229092888,1405.0
84.245804157,1403.0
84.262515426,1427.0
84.279226695,1413.0
84.295937964,1423.0
84.312649233,1351.0
84.329360502,1381.0
84.346071771,1385.0
84.362783040,1394.0
84.379494309,1454.0
84.396205578,1343.0
84.412916847,1361.0
84.429628116,1379.0
84.446339385,1440.0
84.463050654,1403.0
84.479761923,1395.0
84.496473192,1411.0
84.513184461,1400.0
84.529895730,1335.0
84.546606999,1400.0
84.563318268,1392.0
84.580029537,1384.0
84.596740806,1398.0
84.613452075,1361.0
84.630163344,1445.0
84.646874613,1437.0
84.663585882,1355.0
84.680297151,1387.0
84.697008420,1373.0
84.713719689,1343.0
84.730430957,1380.0
84.747142226,1380.0
84.763853495,1400.0
84.780564764,1378.0
84.797276033,1320.0
84.813987302,1322.0
84.830698571,1433.0
84.847409840,1441.0
84.864121109,1351.0
84.880832378,1421.0
84.897543647,1434.0
84.914254916,1348.0
84.930966185,1301.0
84.947677454,1389.0
84.964388723,1397.0
84.981099992,1430.0
84.997811261,1377.0
85.014522530,1366.0
85.031233799,1459.0
85.047945068,1409.0
85.064656337,1415.0
85.081367606,1390.0
85.098078875,1392.0
85.114790144,1355.0
85.131501413,1334.0
85.148212682,1379.0
85.164923951,1351.0
85.181635220,1399.0
85.198346489,1341.0
85.215057758,1333.0
85.231769027,1395.0
85.248480296,1426.0
85.265191565,1360.0
85.281902834,1360.0
85.298614103,1435.0
85.315325372,1321.0
85.332036641,1388.0
85.348747910,1431.0
85.365459179,1270.0
85.382170448,1404.0
85.398881717,1443.0
85.415592986,1300.0
85.432304255,1343.0
85.449015524,1346.0
85.465726793,1349.0
85.482438061,1345.0
85.499149330,1404.0
85.515860599,1404.0
85.532571868,1392.0
85.549283137,1416.0
85.565994406,1387.0
85.582705675,1342.0
85.599416944,1362.0
85.616128213,1404.0
85.632839482,1376.0
85.649550751,1349.0
85.666262020,1420.0
85.682973289,1371.0
85.699684558,1314.0
85.716395827,1345.0
85.733107096,1402.0
85.749818365,1343.0
85.766529634,1357.0
85.783240903,1338.0
85.799952172,1326.0
85.816663441,1341.0
85.833374710,1427.0
85.850085979,1295.0
85.866797248,1360.0
85.883508517,1405.0
85.900219786,1334.0
85.916931055,1303.0
85.933642324,1361.0
85.950353593,1413.0
85.967064862,1311.0
85.983776131,1354.0
86.000487400,1440.0
86.017198669,1387.0
86.033909938,1329.0
86.050621207,1393.0
86.067332476,1424.0
86.084043745,1351.0
86.100755014,1398.0
86.117466283,1379.0
86.134177552,1392.0
86.150888821,1351.0
86.167600090,1305.0
86.184311359,1365.0
86.201022628,1303.0
86.217733897,1354.0
86.234445166,1335.0
86.251156434,1337.0
86.267867703,1385.0
86.284578972,1383.0
86.301290241,1414.0
86.318001510,1392.0
86.334712779,1412.0
86.351424048,1346.0
86.368135317,1401.0
86.384846586,1374.0
86.401557855,1418.0
86.418269124,1399.0
86.434980393,1320.0
86.451691662,1310.0
86.468402931,1368.0
86.485114200,1408.0
86.501825469,1324.0
86.518536738,1376.0
86.535248007,1426.0
86.551959276,1374.0
86.568670545,1352.0
86.585381814,1452.0
86.602093083,1333.0
86.618804352,1363.0
86.635515621,1326.0
86.652226890,1410.0
86.668938159,1290.0
86.685649428,1318.0
86.702360697,1341.0
86.719071966,1386.0
86.735783235,1395.0
86.752494504,1377.0
86.769205773,1422.0
86.785917042,1365.0
86.802628311,1317.0
86.819339580,1398.0
86.836050849,1405.0
86.852762118,1353.0
86.869473387,1310.0
86.886184656,1328.0
86.902895925,1321.0
86.919607194,1303.0
86.936318463,1408.0
86.953029732,1352.0
86.969741001,1309.0
86.986452270,1361.0
87.003163539,1313.0
87.019874807,1356.0
87.036586076,1353.0
87.053297345,1415.0
87.070008614,1386.0
87.086719883,1308.0
87.103431152,1332.0
87.120142421,1361.0
87.136853690,1307.0
87.153564959,1271.0
87.170276228,1330.0
87.186987497,1301.0
87.203698766,1352.0
87.220410035,1319.0
87.237121304,1386.0
87.253832573,1390.0
87.270543842,1367.0
87.287255111,1326.0
87.303966380,1359.0
87.320677649,1366.0
87.337388918,1391.0
87.354100187,1347.0
87.370811456,1350.0
87.387522725,1365.0
87.404233994,1377.0
87.420945263,1412.0
87.437656532,1384.0
87.454367801,1337.0
87.471079070,1355.0
87.487790339,1315.0
87.504501608,1368.0
87.521212877,1404.0
87.537924146,1399.0
87.554635415,1335.0
87.571346684,1347.0
87.588057953,1339.0
87.604769222,1314.0
87.621480491,1338.0
87.638191760,1374.0
87.654903029,1299.0
87.671614298,1322.0
87.688325567,1378.0
87.705036836,1317.0
87.721748105,1371.0
87.738459374,1419.0
87.755170643,1419.0
87.771881911,1343.0
87.788593180,1291.0
87.805304449,1343.0
87.822015718,1361.0
87.838726987,1323.0
87.855438256,1304.0
87.872149525,1324.0
87.888860794,1323.0
87.905572063,1263.0
87.922283332,1394.0
87.938994601,1348.0
87.955705870,1309.0
87.972417139,1334.0
87.989128408,1354.0
88.005839677,1350.0
88.022550946,1338.0
88.039262215,1390.0
88.055973484,1392.0
88.072684753,1333.0
88.089396022,1441.0
88.106107291,1404.0
88.122818560,1393.0
88.139529829,1321.0
88.156241098,1248.0
88.172952367,1338.0
88.189663636,1370.0
88.206374905,1358.0
88.223086174,1319.0
88.239797443,1382.0
88.256508712,1307.0
88.273219981,1365.0
88.289931250,1321.0
88.306642519,1322.0
88.323353788,1340.0
88.340065057,1317.0
88.356776326,1337.0
88.373487595,1367.0
88.390198864,1354.0
88.406910133,1378.0
88.423621402,1368.0
88.440332671,1331.0
88.457043940,1295.0
88.473755209,1341.0
88.490466478,1314.0
88.507177747,1368.0
88.523889016,1275.0
88.540600284,1406.0
88.557311553,1398.0
88.574022822,1303.0
88.590734091,1315.0
88.607445360,1376.0
88.624156629,1317.0
88.640867898,1337.0
88.657579167,1313.0
88.674290436,1336.0
88.691001705,1356.0
88.707712974,1308.0
88.724424243,1372.0
88.741135512,1298.0
88.757846781,1363.0
88.774558050,1296.0
88.791269319,1311.0
88.807980588,1344.0
88.824691857,1327.0
88.841403126,1268.0
88.858114395,1360.0
88.874825664,1344.0
88.891536933,1433.0
88.908248202,1387.0
88.924959471,1420.0
88.941670740,1343.0
88.958382009,1395.0
88.975093278,1380.0
88.991804547,1320.0
89.008515816,1315.0
89.025227085,1292.0
89.041938354,1369.0
89.058649623,1332.0
89.075360892,1256.0
89.092072161,1362.0
89.108783430,1325.0
89.125494699,1311.0
89.142205968,1286.0
89.158917237,1317.0
89.175628506,1283.0
89.192339775,1321.0
89.209051044,1259.0
89.225762313,1347.0
89.242473582,1294.0
89.259184851,1296.0
89.275896120,1277.0
89.292607388,1334.0
89.309318657,1297.0
89.326029926,1334.0
89.342741195,1259.0
89.359452464,1328.0
89.376163733,1305.0
89.392875002,1318.0
89.409586271,1352.0
89.426297540,1334.0
89.443008809,1323.0
89.459720078,1325.0
89.476431347,1359.0
89.493142616,1280.0
89.509853885,1361.0
89.526565154,1326.0
89.543276423,1278.0
89.559987692,1351.0
89.576698961,1382.0
89.593410230,1295.0
89.610121499,1349.0
89.626832768,1300.0
89.643544037,1329.0
89.660255306,1296.0
89.676966575,1358.0
89.693677844,1319.0
89.710389113,1373.0
89.727100382,1351.0
89.743811651,1350.0
89.760522920,1336.0
89.777234189,1340.0
89.793945458,1378.0
89.810656727,1268.0
89.827367996,1309.0
89.844079265,1346.0
89.860790534,1433.0
89.877501803,1324.0
89.894213072,1359.0
89.910924341,1291.0
89.927635610,1302.0
89.944346879,1344.0
89.961058148,1322.0
89.977769417,1324.0
89.994480686,1389.0
90.011191955,1313.0
90.027903224,1371.0
90.044614493,1348.0
90.061325761,1322.0
90.078037030,1427.0
90.094748299,1380.0
90.111459568,1380.0
90.128170837,1346.0
90.144882106,1312.0
90.161593375,1351.0
90.178304644,1343.0
90.195015913,1355.0
90.211727182,1385.0
90.228438451,1304.0
90.245149720,1343.0
90.261860989,1294.0
90.278572258,1261.0
90.295283527,1340.0
90.311994796,1273.0
90.328706065,1335.0
90.345417334,1382.0
90.362128603,1305.0
90.378839872,1414.0
90.395551141,1294.0
90.412262410,1293.0
90.428973679,1385.0
90.445684948,1427.0
90.462396217,1396.0
90.479107486,1402.0
90.495818755,1413.0
90.512530024,1356.0
90.529241293,1283.0
90.545952562,1321.0
90.562663831,1343.0
90.579375100,1327.0
90.596086369,1303.0
90.612797638,1370.0
90.629508907,1372.0
90.646220176,1340.0
90.662931445,1274.0
90.679642714,1270.0
90.696353983,1401.0
90.713065252,1345.0
90.729776521,1293.0
90.746487790,1329.0
90.763199059,1411.0
90.779910328,1337.0
90.796621597,1339.0
90.813332865,1307.0
90.830044134,1306.0
90.846755403,1386.0
90.863466672,1379.0
90.880177941,1337.0
90.896889210,1306.0
90.913600479,1354.0
90.930311748,1315.0
90.947023017,1301.0
90.963734286,1330.0
90.980445555,1251.0
90.997156824,1372.0
91.013868093,1335.0
91.030579362,1333.0
91.047290631,1426.0
91.064001900,1235.0
91.080713169,1291.0
91.097424438,1385.0
91.114135707,1325.0
91.130846976,1289.0
91.147558245,1395.0
91.164269514,1293.0
91.180980783,1313.0
91.197692052,1294.0
91.214403321,1325.0
91.231114590,1355.0
91.247825859,1336.0
91.264537128,1355.0
91.281248397,1407.0
91.297959666,1377.0
91.314670935,1362.0
91.331382204,1388.0
91.348093473,1384.0
91.364804742,1399.0
91.381516011,1342.0
91.398227280,1350.0
91.414938549,1408.0
91.431649818,1344.0
91.448361087,1366.0
91.465072356,1408.0
91.481783625,1386.0
91.498494894,1348.0
91.515206163,1373.0
91.531917432,1372.0
91.548628701,1402.0
91.565339970,1312.0
91.582051238,1338.0
91.598762507,1346.0
91.615473776,1391.0
91.632185045,1352.0
91.648896314,1386.0
91.665607583,1326.0
91.682318852,1412.0
91.699030121,1366.0
91.715741390,1414.0
91.732452659,1377.0
91.749163928,1322.0
91.765875197,1381.0
91.782586466,1477.0
91.799297735,1406.0
91.816009004,1442.0
91.832720273,1409.0
91.849431542,1445.0
91.866142811,1428.0
91.882854080,1464.0
91.899565349,1410.0
91.916276618,1472.0
91.932987887,1339.0
91.949699156,1470.0
91.966410425,1449.0
91.983121694,1483.0
91.999832963,1403.0
92.016544232,1515.0
92.033255501,1420.0
92.049966770,1455.0
92.066678039,1445.0
92.083389308,1431.0
92.100100577,1509.0
92.116811846,1482.0
92.133523115,1456.0
92.150234384,1510.0
92.166945653,1442.0
92.183656922,1482.0
92.200368191,1552.0
92.217079460,1494.0
92.233790729,1532.0
92.250501998,1553.0
92.267213267,1586.0
92.283924536,1588.0
92.300635805,1655.0
92.317347074,1633.0
92.334058342,1568.0
92.350769611,1629.0
92.367480880,1651.0
92.384192149,1657.0
92.400903418,1660.0
92.417614687,1732.0
92.434325956,1637.0
92.451037225,1675.0
92.467748494,1736.0
92.484459763,1723.0
92.501171032,1813.0
92.517882301,1779.0
92.534593570,1717.0
92.551304839,1765.0
92.568016108,1749.0
92.584727377,1803.0
92.601438646,1747.0
92.618149915,1892.0
92.634861184,1822.0
92.651572453,1788.0
92.668283722,1810.0
92.684994991,1844.0
92.701706260,1807.0
92.718417529,1810.0
92.735128798,1784.0
92.751840067,1803.0
92.768551336,1704.0
92.785262605,1712.0
92.801973874,1726.0
92.818685143,1762.0
92.835396412,1640.0
92.852107681,1653.0
92.868818950,1720.0
92.885530219,1658.0
92.902241488,1717.0
92.918952757,1733.0
92.935664026,1685.0
92.952375295,1663.0
92.969086564,1620.0
92.985797833,1573.0
93.002509102,1656.0
93.019220371,1608.0
93.035931640,1510.0
93.052642909,1533.0
93.069354178,1500.0
93.086065447,1545.0
93.102776715,1491.0
93.119487984,1423.0
93.136199253,1438.0
93.152910522,1475.0
93.169621791,1405.0
93.186333060,1365.0
93.203044329,1431.0
93.219755598,1377.0
93.236466867,1443.0
93.253178136,1429.0
93.269889405,1385.0
93.286600674,1440.0
93.303311943,1374.0
93.320023212,1430.0
93.336734481,1358.0
93.353445750,1407.0
93.370157019,1370.0
93.386868288,1422.0
93.403579557,1339.0
93.420290826,1268.0
93.437002095,1365.0
93.453713364,1361.0
93.470424633,1357.0
93.487135902,1323.0
93.503847171,1248.0
93.520558440,1366.0
93.537269709,1356.0
93.553980978,1328.0
93.570692247,1337.0
93.587403516,1362.0
93.604114785,1267.0
93.620826054,1298.0
93.637537323,1330.0
93.654248592,1356.0
93.670959861,1316.0
93.687671130,1351.0
93.704382399,1300.0
93.721093668,1321.0
93.737804937,1241.0
93.754516206,1369.0
93.771227475,1302.0
93.787938744,1378.0
93.804650013,1300.0
93.821361282,1319.0
93.838072551,1337.0
93.854783819,1297.0
93.871495088,1280.0
93.888206357,1304.0
93.904917626,1272.0
93.921628895,1240.0
93.938340164,1360.0
93.955051433,1287.0
93.971762702,1352.0
93.988473971,1278.0
94.005185240,1276.0
94.021896509,1291.0
94.038607778,1274.0
94.055319047,1313.0
94.072030316,1310.0
94.088741585,1279.0
94.105452854,1311.0
94.122164123,1263.0
94.138875392,1348.0
94.155586661,1358.0
94.172297930,1324.0
94.189009199,1363.0
94.205720468,1233.0
94.222431737,1268.0
94.239143006,1319.0
94.255854275,1320.0
94.272565544,1311.0
94.289276813,1282.0
94.305988082,1259.0
94.322699351,1328.0
94.339410620,1244.0
94.356121889,1252.0
94.372833158,1288.0
94.389544427,1261.0
94.406255696,1247.0
94.422966965,1294.0
94.439678234,1251.0
94.456389503,1279.0
94.473100772,1282.0
94.489812041,1323.0
94.506523310,1319.0
94.523234579,1355.0
94.539945848,1285.0
94.556657117,1210.0
94.573368386,1287.0
94.590079655,1284.0
94.606790924,1182.0
94.623502192,1345.0
94.640213461,1200.0
94.656924730,1336.0
94.673635999,1269.0
94.690347268,1321.0
94.707058537,1214.0
94.723769806,1242.0
94.740481075,1229.0
94.757192344,1266.0
94.773903613,1206.0
94.790614882,1282.0
94.807326151,1317.0
94.824037420,1330.0
94.840748689,1312.0
94.857459958,1305.0
94.874171227,1277.0
94.890882496,1254.0
94.907593765,1297.0
94.924305034,1233.0
94.941016303,1259.0
94.957727572,1221.0
94.974438841,1279.0
94.991150110,1243.0
