[Measurement conditions]
Sample identification,
Comment - 1,"finito"
Comment - 2,"Configuration=MRI TC-Basic Stage, Owner=User-1, Creation date=26-10-2009 9:18:44"
Comment - 3,"Goniometer=PW3050/60 (Theta/Theta); Minimum step size 2Theta:0.001; Minimum step size Omega:0.001"
Comment - 4,"Sample stage=MRI TC-Basic (PtRh heat strip)"
Comment - 5,"Diffractometer system=XPERT-PRO"
Comment - 6,"Measurement program=FS-L, Owner=joana, Creation date=25-11-2014 17:28:08"
Anode material,Cu
K-Alpha1 wavelength,1.5405980
K-Alpha2 wavelength,1.5444260
Ratio K-Alpha2/K-Alpha1,0.500
Divergence slit,Fixed,0.76mm
Monochromator used,NO
Generator voltage, 45
Tube current, 40
File date and time,15-Dez-2017 23:03
Unit cell,
h k l, 0 0 0
Temperature [K],573
Scan axis,Gonio
Scan range,24.995999996,94.999505744
Scan step size,0.0167113
No. of points, 4189
Scan type,CONTINUOUS
Time per step,118.110
[Scan points]
Angle,Intensity
25.004355630,2283.0
25.021066899,2152.0
25.037778168,2283.0
25.054489437,2203.0
25.071200706,2241.0
25.087911975,2241.0
25.104623244,2197.0
25.121334513,2303.0
25.138045782,2250.0
25.154757051,2316.0
25.171468320,2216.0
25.188179589,2256.0
25.204890858,2228.0
25.221602127,2273.0
25.238313396,2188.0
25.255024665,2227.0
25.271735934,2160.0
25.288447203,2292.0
25.305158472,2121.0
25.321869741,2241.0
25.338581010,2162.0
25.355292279,2165.0
25.372003548,2142.0
25.388714816,2298.0
25.405426085,2277.0
25.422137354,2269.0
25.438848623,2179.0
25.455559892,2202.0
25.472271161,2223.0
25.488982430,2145.0
25.505693699,2191.0
25.522404968,2186.0
25.539116237,2270.0
25.555827506,2296.0
25.572538775,2308.0
25.589250044,2100.0
25.605961313,2310.0
25.622672582,2212.0
25.639383851,2165.0
25.656095120,2197.0
25.672806389,2189.0
25.689517658,2170.0
25.706228927,2119.0
25.722940196,2214.0
25.739651465,2261.0
25.756362734,2179.0
25.773074003,2202.0
25.789785272,2167.0
25.806496541,2265.0
25.823207810,2297.0
25.839919079,2112.0
25.856630348,2128.0
25.873341617,2256.0
25.890052886,2170.0
25.906764155,2184.0
25.923475424,2167.0
25.940186693,2237.0
25.956897962,2169.0
25.973609231,2067.0
25.990320500,2159.0
26.007031769,2094.0
26.023743038,2183.0
26.040454307,2165.0
26.057165576,2302.0
26.073876845,2204.0
26.090588114,2235.0
26.107299383,2305.0
26.124010652,2176.0
26.140721921,2209.0
26.157433189,2202.0
26.174144458,2228.0
26.190855727,2266.0
26.207566996,2167.0
26.224278265,2230.0
26.240989534,2219.0
26.257700803,2207.0
26.274412072,2190.0
26.291123341,2182.0
26.307834610,2305.0
26.324545879,2172.0
26.341257148,2183.0
26.357968417,2238.0
26.374679686,2343.0
26.391390955,2153.0
26.408102224,2289.0
26.424813493,2194.0
26.441524762,2213.0
26.458236031,2186.0
26.474947300,2203.0
26.491658569,2119.0
26.508369838,2121.0
26.525081107,2203.0
26.541792376,2142.0
26.558503645,2099.0
26.575214914,2257.0
26.591926183,2181.0
26.608637452,2146.0
26.625348721,2160.0
26.642059990,2225.0
26.658771259,2141.0
26.675482528,2156.0
26.692193797,2227.0
26.708905066,2124.0
26.725616335,2221.0
26.742327604,2148.0
26.759038873,2098.0
26.775750142,2201.0
26.792461411,2111.0
26.809172680,2196.0
26.825883949,2250.0
26.842595218,2178.0
26.859306487,2222.0
26.876017756,2187.0
26.892729025,2202.0
26.909440293,2126.0
26.926151562,2186.0
26.942862831,2238.0
26.959574100,2160.0
26.976285369,2207.0
26.992996638,2243.0
27.009707907,2088.0
27.026419176,2099.0
27.043130445,2240.0
27.059841714,2211.0
27.076552983,2207.0
27.093264252,2238.0
27.109975521,2200.0
27.126686790,2205.0
27.143398059,2141.0
27.160109328,2149.0
27.176820597,2117.0
27.193531866,2270.0
27.210243135,2155.0
27.226954404,2205.0
27.243665673,2230.0
27.260376942,2139.0
27.277088211,2214.0
27.293799480,2192.0
27.310510749,2076.0
27.327222018,2116.0
27.343933287,2121.0
27.360644556,2149.0
27.377355825,2224.0
27.394067094,2213.0
27.410778363,2122.0
27.427489632,2094.0
27.444200901,2220.0
27.460912170,2158.0
27.477623439,2178.0
27.494334708,2174.0
27.511045977,2157.0
27.527757246,2162.0
27.544468515,2138.0
27.561179784,2225.0
27.577891053,2209.0
27.594602322,2178.0
27.611313591,2181.0
27.628024860,2129.0
27.644736129,2152.0
27.661447398,2263.0
27.678158666,2123.0
27.694869935,2179.0
27.711581204,2107.0
27.728292473,2127.0
27.745003742,2134.0
27.761715011,2197.0
27.778426280,2187.0
27.795137549,2073.0
27.811848818,2195.0
27.828560087,2137.0
27.845271356,2162.0
27.861982625,2212.0
27.878693894,2186.0
27.895405163,2116.0
27.912116432,2116.0
27.928827701,2139.0
27.945538970,2210.0
27.962250239,2187.0
27.978961508,2261.0
27.995672777,2199.0
28.012384046,2148.0
28.029095315,2225.0
28.045806584,2144.0
28.062517853,2169.0
28.079229122,2151.0
28.095940391,2195.0
28.112651660,2204.0
28.129362929,2224.0
28.146074198,2228.0
28.162785467,2139.0
28.179496736,2234.0
28.196208005,2210.0
28.212919274,2250.0
28.229630543,2239.0
28.246341812,2169.0
28.263053081,2325.0
28.279764350,3008.0
28.296475619,3335.0
28.313186888,2499.0
28.329898157,2266.0
28.346609426,2418.0
28.363320695,2853.0
28.380031964,2667.0
28.396743233,2288.0
28.413454502,2294.0
28.430165770,2257.0
28.446877039,2381.0
28.463588308,2359.0
28.480299577,2423.0
28.497010846,2269.0
28.513722115,2269.0
28.530433384,2335.0
28.547144653,2310.0
28.563855922,2267.0
28.580567191,2316.0
28.597278460,2381.0
28.613989729,2314.0
28.630700998,2373.0
28.647412267,2341.0
28.664123536,2280.0
28.680834805,2338.0
28.697546074,2245.0
28.714257343,2254.0
28.730968612,2315.0
28.747679881,2230.0
28.764391150,2241.0
28.781102419,2185.0
28.797813688,2300.0
28.814524957,2224.0
28.831236226,2223.0
28.847947495,2323.0
28.864658764,2264.0
28.881370033,2212.0
28.898081302,2211.0
28.914792571,2203.0
28.931503840,2180.0
28.948215109,2167.0
28.964926378,2265.0
28.981637647,2230.0
28.998348916,2232.0
29.015060185,2186.0
29.031771454,2131.0
29.048482723,2256.0
29.065193992,2205.0
29.081905261,2139.0
29.098616530,2170.0
29.115327799,2138.0
29.132039068,2202.0
29.148750337,2216.0
29.165461606,2184.0
29.182172875,2152.0
29.198884143,2184.0
29.215595412,2174.0
29.232306681,2144.0
29.249017950,2157.0
29.265729219,2096.0
29.282440488,2147.0
29.299151757,2171.0
29.315863026,2214.0
29.332574295,2194.0
29.349285564,2145.0
29.365996833,2193.0
29.382708102,2209.0
29.399419371,2172.0
29.416130640,2124.0
29.432841909,2212.0
29.449553178,2155.0
29.466264447,2125.0
29.482975716,2247.0
29.499686985,2038.0
29.516398254,2132.0
29.533109523,2118.0
29.549820792,2098.0
29.566532061,2190.0
29.583243330,2149.0
29.599954599,2098.0
29.616665868,2223.0
29.633377137,2131.0
29.650088406,2208.0
29.666799675,2130.0
29.683510944,2112.0
29.700222213,2162.0
29.716933482,2134.0
29.733644751,2126.0
29.750356020,2157.0
29.767067289,2150.0
29.783778558,2208.0
29.800489827,2237.0
29.817201096,2103.0
29.833912365,2122.0
29.850623634,2032.0
29.867334903,2166.0
29.884046172,2099.0
29.900757441,2128.0
29.917468710,2123.0
29.934179979,2169.0
29.950891247,2212.0
29.967602516,2107.0
29.984313785,2153.0
30.001025054,2126.0
30.017736323,2219.0
30.034447592,2070.0
30.051158861,2201.0
30.067870130,2156.0
30.084581399,2166.0
30.101292668,2090.0
30.118003937,2151.0
30.134715206,2159.0
30.151426475,2118.0
30.168137744,2105.0
30.184849013,2144.0
30.201560282,2139.0
30.218271551,2135.0
30.234982820,2098.0
30.251694089,2173.0
30.268405358,2103.0
30.285116627,2101.0
30.301827896,2092.0
30.318539165,2128.0
30.335250434,2162.0
30.351961703,2126.0
30.368672972,2085.0
30.385384241,2195.0
30.402095510,2107.0
30.418806779,2186.0
30.435518048,2067.0
30.452229317,2066.0
30.468940586,2121.0
30.485651855,2078.0
30.502363124,2087.0
30.519074393,2099.0
30.535785662,2089.0
30.552496931,2140.0
30.569208200,2073.0
30.585919469,2091.0
30.602630738,2102.0
30.619342007,2091.0
30.636053276,2202.0
30.652764545,2128.0
30.669475814,2115.0
30.686187083,2135.0
30.702898352,2035.0
30.719609620,2132.0
30.736320889,2055.0
30.753032158,2068.0
30.769743427,2141.0
30.786454696,2089.0
30.803165965,2154.0
30.819877234,2202.0
30.836588503,2149.0
30.853299772,2195.0
30.870011041,2112.0
30.886722310,2164.0
30.903433579,2105.0
30.920144848,2131.0
30.936856117,2108.0
30.953567386,2121.0
30.970278655,2111.0
30.986989924,2067.0
31.003701193,2120.0
31.020412462,2134.0
31.037123731,2029.0
31.053835000,2165.0
31.070546269,2086.0
31.087257538,2098.0
31.103968807,2118.0
31.120680076,2101.0
31.137391345,2112.0
31.154102614,2093.0
31.170813883,2072.0
31.187525152,2139.0
31.204236421,2175.0
31.220947690,2136.0
31.237658959,2156.0
31.254370228,2102.0
31.271081497,2155.0
31.287792766,2096.0
31.304504035,2125.0
31.321215304,2116.0
31.337926573,2081.0
31.354637842,2141.0
31.371349111,2135.0
31.388060380,2064.0
31.404771649,2196.0
31.421482918,2075.0
31.438194187,2188.0
31.454905456,2137.0
31.471616724,2121.0
31.488327993,2203.0
31.505039262,2103.0
31.521750531,2042.0
31.538461800,2020.0
31.555173069,2025.0
31.571884338,2042.0
31.588595607,2055.0
31.605306876,2150.0
31.622018145,2101.0
31.638729414,2061.0
31.655440683,2100.0
31.672151952,2135.0
31.688863221,2130.0
31.705574490,2162.0
31.722285759,2111.0
31.738997028,2073.0
31.755708297,2043.0
31.772419566,2196.0
31.789130835,2085.0
31.805842104,2052.0
31.822553373,2156.0
31.839264642,2149.0
31.855975911,2186.0
31.872687180,2132.0
31.889398449,2058.0
31.906109718,2049.0
31.922820987,2127.0
31.939532256,2126.0
31.956243525,2132.0
31.972954794,2144.0
31.989666063,2116.0
32.006377332,2012.0
32.023088601,2035.0
32.039799870,2007.0
32.056511139,2156.0
32.073222408,2029.0
32.089933677,2130.0
32.106644946,2062.0
32.123356215,2140.0
32.140067484,2128.0
32.156778753,2171.0
32.173490022,2100.0
32.190201291,2102.0
32.206912560,2069.0
32.223623829,2064.0
32.240335097,2087.0
32.257046366,2201.0
32.273757635,2083.0
32.290468904,2194.0
32.307180173,2154.0
32.323891442,2164.0
32.340602711,2169.0
32.357313980,2063.0
32.374025249,2066.0
32.390736518,2090.0
32.407447787,2136.0
32.424159056,2119.0
32.440870325,2162.0
32.457581594,2142.0
32.474292863,2140.0
32.491004132,2065.0
32.507715401,2172.0
32.524426670,2134.0
32.541137939,2122.0
32.557849208,2190.0
32.574560477,2126.0
32.591271746,2108.0
32.607983015,2064.0
32.624694284,2112.0
32.641405553,2109.0
32.658116822,2098.0
32.674828091,2132.0
32.691539360,2154.0
32.708250629,2119.0
32.724961898,2178.0
32.741673167,2107.0
32.758384436,2101.0
32.775095705,2156.0
32.791806974,2079.0
32.808518243,2074.0
32.825229512,2084.0
32.841940781,2164.0
32.858652050,2137.0
32.875363319,2118.0
32.892074588,2096.0
32.908785857,2108.0
32.925497126,2056.0
32.942208395,2180.0
32.958919664,2051.0
32.975630933,2059.0
32.992342201,2138.0
33.009053470,2059.0
33.025764739,2139.0
33.042476008,2120.0
33.059187277,2052.0
33.075898546,2162.0
33.092609815,2083.0
33.109321084,2044.0
33.126032353,2093.0
33.142743622,2091.0
33.159454891,2042.0
33.176166160,2217.0
33.192877429,2159.0
33.209588698,2065.0
33.226299967,2102.0
33.243011236,2125.0
33.259722505,2137.0
33.276433774,2109.0
33.293145043,2143.0
33.309856312,2147.0
33.326567581,2097.0
33.343278850,2083.0
33.359990119,2068.0
33.376701388,2105.0
33.393412657,2023.0
33.410123926,2111.0
33.426835195,2047.0
33.443546464,2167.0
33.460257733,2144.0
33.476969002,2059.0
33.493680271,2072.0
33.510391540,2106.0
33.527102809,2102.0
33.543814078,2058.0
33.560525347,2055.0
33.577236616,2069.0
33.593947885,2126.0
33.610659154,2034.0
33.627370423,2092.0
33.644081692,2129.0
33.660792961,2107.0
33.677504230,2112.0
33.694215499,2064.0
33.710926768,2095.0
33.727638037,2092.0
33.744349306,2137.0
33.761060574,2068.0
33.777771843,2066.0
33.794483112,2092.0
33.811194381,2072.0
33.827905650,2101.0
33.844616919,2115.0
33.861328188,2060.0
33.878039457,2116.0
33.894750726,2090.0
33.911461995,2059.0
33.928173264,2061.0
33.944884533,2066.0
33.961595802,2138.0
33.978307071,2076.0
33.995018340,2055.0
34.011729609,2138.0
34.028440878,2002.0
34.045152147,2116.0
34.061863416,2108.0
34.078574685,2092.0
34.095285954,2125.0
34.111997223,2059.0
34.128708492,2054.0
34.145419761,2115.0
34.162131030,2088.0
34.178842299,2149.0
34.195553568,2042.0
34.212264837,2117.0
34.228976106,2078.0
34.245687375,2153.0
34.262398644,2114.0
34.279109913,2060.0
34.295821182,2050.0
34.312532451,2025.0
34.329243720,2077.0
34.345954989,2062.0
34.362666258,2060.0
34.379377527,2167.0
34.396088796,2083.0
34.412800065,2099.0
34.429511334,2210.0
34.446222603,2055.0
34.462933872,2110.0
34.479645141,2112.0
34.496356410,1996.0
34.513067679,2149.0
34.529778947,2113.0
34.546490216,2015.0
34.563201485,2084.0
34.579912754,2102.0
34.596624023,2109.0
34.613335292,2087.0
34.630046561,2027.0
34.646757830,2111.0
34.663469099,2105.0
34.680180368,2126.0
34.696891637,2090.0
34.713602906,2028.0
34.730314175,2112.0
34.747025444,2086.0
34.763736713,2071.0
34.780447982,2232.0
34.797159251,2013.0
34.813870520,2165.0
34.830581789,2041.0
34.847293058,2032.0
34.864004327,2112.0
34.880715596,2120.0
34.897426865,2049.0
34.914138134,2044.0
34.930849403,2087.0
34.947560672,2115.0
34.964271941,2149.0
34.980983210,2111.0
34.997694479,2072.0
35.014405748,2133.0
35.031117017,2090.0
35.047828286,2139.0
35.064539555,2066.0
35.081250824,2041.0
35.097962093,2017.0
35.114673362,2056.0
35.131384631,2085.0
35.148095900,2049.0
35.164807169,2095.0
35.181518438,2122.0
35.198229707,2020.0
35.214940976,2042.0
35.231652245,2078.0
35.248363514,2124.0
35.265074783,2093.0
35.281786051,1957.0
35.298497320,2118.0
35.315208589,2154.0
35.331919858,2108.0
35.348631127,2120.0
35.365342396,2050.0
35.382053665,2052.0
35.398764934,2083.0
35.415476203,2055.0
35.432187472,2039.0
35.448898741,2098.0
35.465610010,2013.0
35.482321279,2145.0
35.499032548,2019.0
35.515743817,2053.0
35.532455086,2204.0
35.549166355,2078.0
35.565877624,2092.0
35.582588893,1991.0
35.599300162,2140.0
35.616011431,2070.0
35.632722700,2106.0
35.649433969,2162.0
35.666145238,2088.0
35.682856507,2052.0
35.699567776,2067.0
35.716279045,2111.0
35.732990314,2080.0
35.749701583,2152.0
35.766412852,1993.0
35.783124121,2055.0
35.799835390,2048.0
35.816546659,2129.0
35.833257928,2054.0
35.849969197,2000.0
35.866680466,2023.0
35.883391735,2027.0
35.900103004,2046.0
35.916814273,2008.0
35.933525542,2016.0
35.950236811,2163.0
35.966948080,2011.0
35.983659349,2091.0
36.000370618,2058.0
36.017081887,2136.0
36.033793156,2106.0
36.050504424,2021.0
36.067215693,2075.0
36.083926962,2099.0
36.100638231,2059.0
36.117349500,1991.0
36.134060769,2079.0
36.150772038,2081.0
36.167483307,2083.0
36.184194576,2053.0
36.200905845,2041.0
36.217617114,2135.0
36.234328383,2095.0
36.251039652,2042.0
36.267750921,2090.0
36.284462190,2085.0
36.301173459,2055.0
36.317884728,2091.0
36.334595997,2104.0
36.351307266,2046.0
36.368018535,1991.0
36.384729804,2095.0
36.401441073,2069.0
36.418152342,2025.0
36.434863611,2004.0
36.451574880,1992.0
36.468286149,2052.0
36.484997418,2039.0
36.501708687,2053.0
36.518419956,2067.0
36.535131225,2133.0
36.551842494,2137.0
36.568553763,2162.0
36.585265032,2084.0
36.601976301,2072.0
36.618687570,2059.0
36.635398839,2097.0
36.652110108,2108.0
36.668821377,2076.0
36.685532646,2135.0
36.702243915,2004.0
36.718955184,1986.0
36.735666453,2053.0
36.752377722,2005.0
36.769088991,2029.0
36.785800260,2158.0
36.802511528,2091.0
36.819222797,2076.0
36.835934066,2062.0
36.852645335,2094.0
36.869356604,2140.0
36.886067873,2169.0
36.902779142,1980.0
36.919490411,1973.0
36.936201680,2119.0
36.952912949,2066.0
36.969624218,2032.0
36.986335487,2038.0
37.003046756,1992.0
37.019758025,2166.0
37.036469294,2116.0
37.053180563,2139.0
37.069891832,1995.0
37.086603101,2040.0
37.103314370,2074.0
37.120025639,2053.0
37.136736908,2032.0
37.153448177,2062.0
37.170159446,2056.0
37.186870715,2079.0
37.203581984,2000.0
37.220293253,2000.0
37.237004522,2022.0
37.253715791,2006.0
37.270427060,2048.0
37.287138329,2026.0
37.303849598,2072.0
37.320560867,2015.0
37.337272136,2094.0
37.353983405,2101.0
37.370694674,2196.0
37.387405943,2041.0
37.404117212,2135.0
37.420828481,2056.0
37.437539750,2034.0
37.454251019,2080.0
37.470962288,2081.0
37.487673557,2060.0
37.504384826,1999.0
37.521096095,2111.0
37.537807364,1986.0
37.554518633,1919.0
37.571229901,2031.0
37.587941170,1950.0
37.604652439,2115.0
37.621363708,2074.0
37.638074977,1891.0
37.654786246,2121.0
37.671497515,2049.0
37.688208784,2164.0
37.704920053,2093.0
37.721631322,2090.0
37.738342591,2056.0
37.755053860,2068.0
37.771765129,1992.0
37.788476398,1979.0
37.805187667,2123.0
37.821898936,2099.0
37.838610205,2084.0
37.855321474,2019.0
37.872032743,2050.0
37.888744012,2072.0
37.905455281,2008.0
37.922166550,2149.0
37.938877819,2154.0
37.955589088,2036.0
37.972300357,2046.0
37.989011626,2043.0
38.005722895,2127.0
38.022434164,2124.0
38.039145433,2161.0
38.055856702,2138.0
38.072567971,2092.0
38.089279240,2115.0
38.105990509,2041.0
38.122701778,2090.0
38.139413047,2198.0
38.156124316,2046.0
38.172835585,2107.0
38.189546854,2068.0
38.206258123,2035.0
38.222969392,1983.0
38.239680661,2052.0
38.256391930,2041.0
38.273103199,2036.0
38.289814468,2006.0
38.306525737,2083.0
38.323237005,2009.0
38.339948274,2012.0
38.356659543,2032.0
38.373370812,1987.0
38.390082081,2090.0
38.406793350,2104.0
38.423504619,1989.0
38.440215888,2091.0
38.456927157,2034.0
38.473638426,1946.0
38.490349695,2000.0
38.507060964,2113.0
38.523772233,2102.0
38.540483502,1977.0
38.557194771,2049.0
38.573906040,2000.0
38.590617309,2049.0
38.607328578,2026.0
38.624039847,1952.0
38.640751116,2010.0
38.657462385,2087.0
38.674173654,1926.0
38.690884923,2013.0
38.707596192,1960.0
38.724307461,1965.0
38.741018730,2001.0
38.757729999,1933.0
38.774441268,2066.0
38.791152537,1963.0
38.807863806,1970.0
38.824575075,1976.0
38.841286344,1999.0
38.857997613,2023.0
38.874708882,1989.0
38.891420151,2010.0
38.908131420,1888.0
38.924842689,2042.0
38.941553958,2040.0
38.958265227,1898.0
38.974976496,2036.0
38.991687765,2018.0
39.008399034,2039.0
39.025110303,2028.0
39.041821572,1999.0
39.058532841,2041.0
39.075244110,1972.0
39.091955378,2029.0
39.108666647,2057.0
39.125377916,2069.0
39.142089185,1868.0
39.158800454,2037.0
39.175511723,2072.0
39.192222992,2051.0
39.208934261,1986.0
39.225645530,2064.0
39.242356799,1983.0
39.259068068,2118.0
39.275779337,2127.0
39.292490606,1992.0
39.309201875,1984.0
39.325913144,2042.0
39.342624413,2042.0
39.359335682,2024.0
39.376046951,2026.0
39.392758220,2007.0
39.409469489,2070.0
39.426180758,1973.0
39.442892027,2065.0
39.459603296,1963.0
39.476314565,1991.0
39.493025834,2002.0
39.509737103,1987.0
39.526448372,2069.0
39.543159641,2088.0
39.559870910,2013.0
39.576582179,2110.0
39.593293448,2043.0
39.610004717,2150.0
39.626715986,2106.0
39.643427255,2142.0
39.660138524,2245.0
39.676849793,2225.0
39.693561062,2390.0
39.710272331,2369.0
39.726983600,2383.0
39.743694869,2462.0
39.760406138,2302.0
39.777117407,2256.0
39.793828676,2217.0
39.810539945,2249.0
39.827251214,2182.0
39.843962482,2307.0
39.860673751,2135.0
39.877385020,2117.0
39.894096289,2120.0
39.910807558,2028.0
39.927518827,1964.0
39.944230096,2078.0
39.960941365,2087.0
39.977652634,2069.0
39.994363903,2043.0
40.011075172,2144.0
40.027786441,2177.0
40.044497710,2111.0
40.061208979,2138.0
40.077920248,2107.0
40.094631517,2158.0
40.111342786,2073.0
40.128054055,2081.0
40.144765324,2121.0
40.161476593,2075.0
40.178187862,2080.0
40.194899131,2010.0
40.211610400,2029.0
40.228321669,1946.0
40.245032938,1963.0
40.261744207,1996.0
40.278455476,2090.0
40.295166745,2041.0
40.311878014,2100.0
40.328589283,1990.0
40.345300552,1969.0
40.362011821,2020.0
40.378723090,2009.0
40.395434359,2026.0
40.412145628,1964.0
40.428856897,1961.0
40.445568166,2014.0
40.462279435,2043.0
40.478990704,1981.0
40.495701973,1965.0
40.512413242,1995.0
40.529124511,2004.0
40.545835780,2021.0
40.562547049,2033.0
40.579258318,2037.0
40.595969587,2053.0
40.612680855,2028.0
40.629392124,2029.0
40.646103393,1904.0
40.662814662,2022.0
40.679525931,1985.0
40.696237200,1999.0
40.712948469,2034.0
40.729659738,2015.0
40.746371007,1999.0
40.763082276,1987.0
40.779793545,1927.0
40.796504814,1891.0
40.813216083,2071.0
40.829927352,2018.0
40.846638621,1778.0
40.863349890,2012.0
40.880061159,2035.0
40.896772428,1981.0
40.913483697,1967.0
40.930194966,2039.0
40.946906235,1927.0
40.963617504,1959.0
40.980328773,1991.0
40.997040042,1980.0
41.013751311,1931.0
41.030462580,1954.0
41.047173849,1952.0
41.063885118,2006.0
41.080596387,1954.0
41.097307656,1993.0
41.114018925,2016.0
41.130730194,2046.0
41.147441463,2003.0
41.164152732,1941.0
41.180864001,2018.0
41.197575270,1985.0
41.214286539,1938.0
41.230997808,2036.0
41.247709077,1955.0
41.264420346,2000.0
41.281131615,2042.0
41.297842884,2003.0
41.314554153,1952.0
41.331265422,2029.0
41.347976691,1923.0
41.364687959,1912.0
41.381399228,2041.0
41.398110497,1955.0
41.414821766,1967.0
41.431533035,2018.0
41.448244304,2065.0
41.464955573,2008.0
41.481666842,1959.0
41.498378111,2048.0
41.515089380,2086.0
41.531800649,1993.0
41.548511918,1963.0
41.565223187,1999.0
41.581934456,1976.0
41.598645725,1995.0
41.615356994,1996.0
41.632068263,1996.0
41.648779532,2062.0
41.665490801,2000.0
41.682202070,1926.0
41.698913339,1942.0
41.715624608,2007.0
41.732335877,1953.0
41.749047146,2033.0
41.765758415,1996.0
41.782469684,1963.0
41.799180953,2024.0
41.815892222,1996.0
41.832603491,2052.0
41.849314760,1995.0
41.866026029,2064.0
41.882737298,2002.0
41.899448567,1960.0
41.916159836,1927.0
41.932871105,1975.0
41.949582374,1950.0
41.966293643,1958.0
41.983004912,1980.0
41.999716181,1963.0
42.016427450,1982.0
42.033138719,1937.0
42.049849988,1976.0
42.066561257,2026.0
42.083272526,1965.0
42.099983795,2023.0
42.116695064,1940.0
42.133406332,1994.0
42.150117601,1917.0
42.166828870,2070.0
42.183540139,2010.0
42.200251408,1894.0
42.216962677,2011.0
42.233673946,2026.0
42.250385215,1977.0
42.267096484,1854.0
42.283807753,1997.0
42.300519022,1966.0
42.317230291,1989.0
42.333941560,1975.0
42.350652829,1957.0
42.367364098,2003.0
42.384075367,2010.0
42.400786636,2021.0
42.417497905,1993.0
42.434209174,1963.0
42.450920443,1987.0
42.467631712,1973.0
42.484342981,2012.0
42.501054250,1996.0
42.517765519,2014.0
42.534476788,1937.0
42.551188057,2070.0
42.567899326,1970.0
42.584610595,2051.0
42.601321864,1967.0
42.618033133,2038.0
42.634744402,1980.0
42.651455671,1960.0
42.668166940,2003.0
42.684878209,2063.0
42.701589478,2059.0
42.718300747,2039.0
42.735012016,2029.0
42.751723285,2006.0
42.768434554,2049.0
42.785145823,1971.0
42.801857092,2019.0
42.818568361,1973.0
42.835279630,2011.0
42.851990899,2092.0
42.868702168,2141.0
42.885413436,2095.0
42.902124705,1918.0
42.918835974,2101.0
42.935547243,2020.0
42.952258512,2066.0
42.968969781,2077.0
42.985681050,2055.0
43.002392319,2011.0
43.019103588,2010.0
43.035814857,2148.0
43.052526126,2057.0
43.069237395,1980.0
43.085948664,2033.0
43.102659933,2069.0
43.119371202,2042.0
43.136082471,2106.0
43.152793740,2092.0
43.169505009,1979.0
43.186216278,2062.0
43.202927547,2073.0
43.219638816,2085.0
43.236350085,2096.0
43.253061354,2182.0
43.269772623,2100.0
43.286483892,2120.0
43.303195161,2119.0
43.319906430,2175.0
43.336617699,2165.0
43.353328968,2160.0
43.370040237,2054.0
43.386751506,2101.0
43.403462775,2142.0
43.420174044,2203.0
43.436885313,2068.0
43.453596582,2221.0
43.470307851,2120.0
43.487019120,2195.0
43.503730389,2119.0
43.520441658,2207.0
43.537152927,2214.0
43.553864196,2256.0
43.570575465,2214.0
43.587286734,2282.0
43.603998003,2289.0
43.620709272,2244.0
43.637420541,2301.0
43.654131809,2285.0
43.670843078,2395.0
43.687554347,2450.0
43.704265616,2375.0
43.720976885,2484.0
43.737688154,2638.0
43.754399423,2518.0
43.771110692,2682.0
43.787821961,2621.0
43.804533230,2827.0
43.821244499,2807.0
43.837955768,2932.0
43.854667037,3149.0
43.871378306,3164.0
43.888089575,3243.0
43.904800844,3354.0
43.921512113,3439.0
43.938223382,3622.0
43.954934651,3710.0
43.971645920,3847.0
43.988357189,4039.0
44.005068458,4091.0
44.021779727,4393.0
44.038490996,4719.0
44.055202265,4870.0
44.071913534,5121.0
44.088624803,5357.0
44.105336072,5833.0
44.122047341,6116.0
44.138758610,6656.0
44.155469879,7063.0
44.172181148,7401.0
44.188892417,8087.0
44.205603686,8693.0
44.222314955,9183.0
44.239026224,9542.0
44.255737493,9743.0
44.272448762,10013.0
44.289160031,10102.0
44.305871300,10237.0
44.322582569,9791.0
44.339293838,9606.0
44.356005107,9130.0
44.372716376,8599.0
44.389427645,8145.0
44.406138913,7669.0
44.422850182,6917.0
44.439561451,6365.0
44.456272720,5759.0
44.472983989,5278.0
44.489695258,4831.0
44.506406527,4340.0
44.523117796,3941.0
44.539829065,3609.0
44.556540334,3364.0
44.573251603,3101.0
44.589962872,2995.0
44.606674141,2777.0
44.623385410,2670.0
44.640096679,2549.0
44.656807948,2547.0
44.673519217,2560.0
44.690230486,2387.0
44.706941755,2316.0
44.723653024,2291.0
44.740364293,2262.0
44.757075562,2383.0
44.773786831,2303.0
44.790498100,2223.0
44.807209369,2201.0
44.823920638,2152.0
44.840631907,2229.0
44.857343176,2173.0
44.874054445,2197.0
44.890765714,2109.0
44.907476983,2248.0
44.924188252,2158.0
44.940899521,2132.0
44.957610790,2128.0
44.974322059,2204.0
44.991033328,2143.0
45.007744597,2113.0
45.024455866,2094.0
45.041167135,2067.0
45.057878404,2137.0
45.074589673,2088.0
45.091300942,2108.0
45.108012211,1997.0
45.124723480,1983.0
45.141434749,2086.0
45.158146018,2096.0
45.174857286,2137.0
45.191568555,2027.0
45.208279824,2122.0
45.224991093,2148.0
45.241702362,2186.0
45.258413631,2126.0
45.275124900,2153.0
45.291836169,2187.0
45.308547438,2177.0
45.325258707,2126.0
45.341969976,2171.0
45.358681245,2171.0
45.375392514,2302.0
45.392103783,2140.0
45.408815052,2120.0
45.425526321,2152.0
45.442237590,2101.0
45.458948859,2064.0
45.475660128,2146.0
45.492371397,2186.0
45.509082666,2157.0
45.525793935,2128.0
45.542505204,2051.0
45.559216473,2083.0
45.575927742,2017.0
45.592639011,2051.0
45.609350280,2054.0
45.626061549,2052.0
45.642772818,2003.0
45.659484087,1935.0
45.676195356,2035.0
45.692906625,2070.0
45.709617894,2033.0
45.726329163,2056.0
45.743040432,1981.0
45.759751701,2090.0
45.776462970,2050.0
45.793174239,2085.0
45.809885508,2039.0
45.826596777,2062.0
45.843308046,2108.0
45.860019315,2073.0
45.876730584,2021.0
45.893441853,2205.0
45.910153122,2129.0
45.926864390,2208.0
45.943575659,2226.0
45.960286928,2261.0
45.976998197,2349.0
45.993709466,2330.0
46.010420735,2491.0
46.027132004,2673.0
46.043843273,2685.0
46.060554542,2826.0
46.077265811,3048.0
46.093977080,3164.0
46.110688349,3440.0
46.127399618,3968.0
46.144110887,4324.0
46.160822156,5018.0
46.177533425,6118.0
46.194244694,7848.0
46.210955963,8201.0
46.227667232,6099.0
46.244378501,4191.0
46.261089770,3696.0
46.277801039,3643.0
46.294512308,4158.0
46.311223577,4699.0
46.327934846,5167.0
46.344646115,4552.0
46.361357384,3463.0
46.378068653,2990.0
46.394779922,2872.0
46.411491191,2810.0
46.428202460,3004.0
46.444913729,3036.0
46.461624998,3162.0
46.478336267,3278.0
46.495047536,3467.0
46.511758805,3468.0
46.528470074,3521.0
46.545181343,3573.0
46.561892612,3494.0
46.578603881,3548.0
46.595315150,3451.0
46.612026419,3318.0
46.628737688,3244.0
46.645448957,3073.0
46.662160226,3069.0
46.678871495,2993.0
46.695582763,2812.0
46.712294032,2823.0
46.729005301,2630.0
46.745716570,2381.0
46.762427839,2406.0
46.779139108,2250.0
46.795850377,2253.0
46.812561646,2168.0
46.829272915,2128.0
46.845984184,2033.0
46.862695453,2061.0
46.879406722,2097.0
46.896117991,1969.0
46.912829260,1922.0
46.929540529,1974.0
46.946251798,1949.0
46.962963067,1905.0
46.979674336,1991.0
46.996385605,1965.0
47.013096874,1964.0
47.029808143,1856.0
47.046519412,1978.0
47.063230681,1954.0
47.079941950,1964.0
47.096653219,1993.0
47.113364488,1934.0
47.130075757,1898.0
47.146787026,1900.0
47.163498295,1877.0
47.180209564,1952.0
47.196920833,1941.0
47.213632102,1943.0
47.230343371,1945.0
47.247054640,1853.0
47.263765909,1974.0
47.280477178,1943.0
47.297188447,1882.0
47.313899716,1983.0
47.330610985,1964.0
47.347322254,1961.0
47.364033523,1821.0
47.380744792,1897.0
47.397456061,1922.0
47.414167330,1953.0
47.430878599,1932.0
47.447589867,1954.0
47.464301136,1906.0
47.481012405,1845.0
47.497723674,1884.0
47.514434943,1825.0
47.531146212,1960.0
47.547857481,1892.0
47.564568750,1898.0
47.581280019,1846.0
47.597991288,1935.0
47.614702557,1825.0
47.631413826,1985.0
47.648125095,1895.0
47.664836364,1849.0
47.681547633,1922.0
47.698258902,1860.0
47.714970171,1877.0
47.731681440,1872.0
47.748392709,1885.0
47.765103978,1896.0
47.781815247,1878.0
47.798526516,1907.0
47.815237785,1843.0
47.831949054,1925.0
47.848660323,1877.0
47.865371592,1959.0
47.882082861,1860.0
47.898794130,1989.0
47.915505399,1858.0
47.932216668,1827.0
47.948927937,1951.0
47.965639206,1828.0
47.982350475,1867.0
47.999061744,1914.0
48.015773013,1840.0
48.032484282,1922.0
48.049195551,1870.0
48.065906820,1901.0
48.082618089,1917.0
48.099329358,1863.0
48.116040627,1915.0
48.132751896,1908.0
48.149463165,1957.0
48.166174434,1864.0
48.182885703,1864.0
48.199596972,1908.0
48.216308240,1833.0
48.233019509,1873.0
48.249730778,1872.0
48.266442047,1923.0
48.283153316,1861.0
48.299864585,1880.0
48.316575854,1843.0
48.333287123,1855.0
48.349998392,1957.0
48.366709661,1883.0
48.383420930,1895.0
48.400132199,1885.0
48.416843468,1870.0
48.433554737,1846.0
48.450266006,1907.0
48.466977275,1903.0
48.483688544,1884.0
48.500399813,1931.0
48.517111082,1927.0
48.533822351,1833.0
48.550533620,1836.0
48.567244889,1861.0
48.583956158,1860.0
48.600667427,1846.0
48.617378696,1921.0
48.634089965,1886.0
48.650801234,1925.0
48.667512503,1797.0
48.684223772,1959.0
48.700935041,1838.0
48.717646310,1857.0
48.734357579,1856.0
48.751068848,1896.0
48.767780117,1806.0
48.784491386,1897.0
48.801202655,1901.0
48.817913924,1842.0
48.834625193,1777.0
48.851336462,1935.0
48.868047731,1850.0
48.884759000,1881.0
48.901470269,1826.0
48.918181538,1910.0
48.934892807,1871.0
48.951604076,1861.0
48.968315344,1998.0
48.985026613,1913.0
49.001737882,1967.0
49.018449151,1845.0
49.035160420,1892.0
49.051871689,1956.0
49.068582958,1881.0
49.085294227,1865.0
49.102005496,1872.0
49.118716765,1838.0
49.135428034,1720.0
49.152139303,1834.0
49.168850572,1833.0
49.185561841,1955.0
49.202273110,1966.0
49.218984379,1840.0
49.235695648,1977.0
49.252406917,1977.0
49.269118186,1868.0
49.285829455,1850.0
49.302540724,1778.0
49.319251993,1888.0
49.335963262,1958.0
49.352674531,1904.0
49.369385800,1972.0
49.386097069,1939.0
49.402808338,1874.0
49.419519607,1998.0
49.436230876,1962.0
49.452942145,1984.0
49.469653414,2049.0
49.486364683,1993.0
49.503075952,2053.0
49.519787221,1971.0
49.536498490,1945.0
49.553209759,1882.0
49.569921028,2040.0
49.586632297,1918.0
49.603343566,1991.0
49.620054835,1902.0
49.636766104,1950.0
49.653477373,1958.0
49.670188642,1952.0
49.686899911,1931.0
49.703611180,1905.0
49.720322449,1810.0
49.737033717,1866.0
49.753744986,1830.0
49.770456255,1877.0
49.787167524,1849.0
49.803878793,1923.0
49.820590062,1922.0
49.837301331,1885.0
49.854012600,1875.0
49.870723869,1894.0
49.887435138,1884.0
49.904146407,1884.0
49.920857676,1969.0
49.937568945,1819.0
49.954280214,1838.0
49.970991483,1818.0
49.987702752,1863.0
50.004414021,1844.0
50.021125290,1903.0
50.037836559,1859.0
50.054547828,1929.0
50.071259097,1903.0
50.087970366,1861.0
50.104681635,1866.0
50.121392904,1880.0
50.138104173,1980.0
50.154815442,1877.0
50.171526711,1906.0
50.188237980,1908.0
50.204949249,1925.0
50.221660518,1910.0
50.238371787,1894.0
50.255083056,2019.0
50.271794325,1976.0
50.288505594,2062.0
50.305216863,1974.0
50.321928132,2089.0
50.338639401,2139.0
50.355350670,2161.0
50.372061939,2235.0
50.388773208,2181.0
50.405484477,2184.0
50.422195746,2301.0
50.438907015,2316.0
50.455618284,2316.0
50.472329553,2281.0
50.489040821,2312.0
50.505752090,2146.0
50.522463359,2217.0
50.539174628,2221.0
50.555885897,2349.0
50.572597166,2190.0
50.589308435,2114.0
50.606019704,2082.0
50.622730973,2139.0
50.639442242,2044.0
50.656153511,2106.0
50.672864780,1956.0
50.689576049,1996.0
50.706287318,2035.0
50.722998587,1964.0
50.739709856,2042.0
50.756421125,2000.0
50.773132394,1985.0
50.789843663,1968.0
50.806554932,2048.0
50.823266201,2006.0
50.839977470,1922.0
50.856688739,1961.0
50.873400008,1989.0
50.890111277,1873.0
50.906822546,2039.0
50.923533815,2002.0
50.940245084,2088.0
50.956956353,2072.0
50.973667622,2128.0
50.990378891,2049.0
51.007090160,2135.0
51.023801429,2051.0
51.040512698,2072.0
51.057223967,2103.0
51.073935236,2165.0
51.090646505,2164.0
51.107357774,2233.0
51.124069043,2184.0
51.140780312,2296.0
51.157491581,2256.0
51.174202850,2274.0
51.190914119,2298.0
51.207625388,2433.0
51.224336657,2334.0
51.241047926,2422.0
51.257759194,2481.0
51.274470463,2714.0
51.291181732,2668.0
51.307893001,2722.0
51.324604270,2850.0
51.341315539,2940.0
51.358026808,3061.0
51.374738077,3066.0
51.391449346,3189.0
51.408160615,3265.0
51.424871884,3509.0
51.441583153,3567.0
51.458294422,3585.0
51.475005691,3856.0
51.491716960,4049.0
51.508428229,4067.0
51.525139498,4188.0
51.541850767,4258.0
51.558562036,4373.0
51.575273305,4324.0
51.591984574,4363.0
51.608695843,4283.0
51.625407112,4258.0
51.642118381,4279.0
51.658829650,4163.0
51.675540919,4050.0
51.692252188,3960.0
51.708963457,3690.0
51.725674726,3650.0
51.742385995,3586.0
51.759097264,3333.0
51.775808533,3221.0
51.792519802,3167.0
51.809231071,2882.0
51.825942340,2866.0
51.842653609,2808.0
51.859364878,2574.0
51.876076147,2466.0
51.892787416,2487.0
51.909498685,2406.0
51.926209954,2303.0
51.942921223,2283.0
51.959632492,2272.0
51.976343761,2308.0
51.993055030,2143.0
52.009766299,2053.0
52.026477567,2053.0
52.043188836,1945.0
52.059900105,2026.0
52.076611374,2053.0
52.093322643,2074.0
52.110033912,1916.0
52.126745181,2060.0
52.143456450,1935.0
52.160167719,1961.0
52.176878988,1993.0
52.193590257,1920.0
52.210301526,1926.0
52.227012795,1850.0
52.243724064,1965.0
52.260435333,1900.0
52.277146602,1900.0
52.293857871,1929.0
52.310569140,1850.0
52.327280409,1900.0
52.343991678,1792.0
52.360702947,1851.0
52.377414216,1871.0
52.394125485,1879.0
52.410836754,1869.0
52.427548023,1858.0
52.444259292,1836.0
52.460970561,1879.0
52.477681830,1842.0
52.494393099,1780.0
52.511104368,1794.0
52.527815637,1769.0
52.544526906,1834.0
52.561238175,1862.0
52.577949444,1849.0
52.594660713,1791.0
52.611371982,1800.0
52.628083251,1812.0
52.644794520,1797.0
52.661505789,1878.0
52.678217058,1785.0
52.694928327,1846.0
52.711639596,1929.0
52.728350865,1841.0
52.745062134,1894.0
52.761773403,1899.0
52.778484671,1757.0
52.795195940,1790.0
52.811907209,1829.0
52.828618478,1870.0
52.845329747,1831.0
52.862041016,1799.0
52.878752285,1753.0
52.895463554,1899.0
52.912174823,1871.0
52.928886092,1804.0
52.945597361,1710.0
52.962308630,1795.0
52.979019899,1832.0
52.995731168,1815.0
53.012442437,1895.0
53.029153706,1759.0
53.045864975,1838.0
53.062576244,1743.0
53.079287513,1813.0
53.095998782,1748.0
53.112710051,1778.0
53.129421320,1771.0
53.146132589,1789.0
53.162843858,1706.0
53.179555127,1842.0
53.196266396,1778.0
53.212977665,1731.0
53.229688934,1861.0
53.246400203,1735.0
53.263111472,1764.0
53.279822741,1821.0
53.296534010,1764.0
53.313245279,1830.0
53.329956548,1818.0
53.346667817,1861.0
53.363379086,1739.0
53.380090355,1779.0
53.396801624,1795.0
53.413512893,1804.0
53.430224162,1753.0
53.446935431,1753.0
53.463646700,1751.0
53.480357969,1754.0
53.497069238,1800.0
53.513780507,1792.0
53.530491776,1827.0
53.547203044,1812.0
53.563914313,1782.0
53.580625582,1806.0
53.597336851,1784.0
53.614048120,1809.0
53.630759389,1728.0
53.647470658,1794.0
53.664181927,1820.0
53.680893196,1813.0
53.697604465,1821.0
53.714315734,1766.0
53.731027003,1783.0
53.747738272,1870.0
53.764449541,1806.0
53.781160810,1751.0
53.797872079,1774.0
53.814583348,1853.0
53.831294617,1746.0
53.848005886,1731.0
53.864717155,1838.0
53.881428424,1785.0
53.898139693,1850.0
53.914850962,1853.0
53.931562231,1806.0
53.948273500,1724.0
53.964984769,1692.0
53.981696038,1762.0
53.998407307,1811.0
54.015118576,1829.0
54.031829845,1748.0
54.048541114,1816.0
54.065252383,1745.0
54.081963652,1753.0
54.098674921,1865.0
54.115386190,1827.0
54.132097459,1827.0
54.148808728,1765.0
54.165519997,1765.0
54.182231266,1796.0
54.198942535,1712.0
54.215653804,1731.0
54.232365073,1766.0
54.249076342,1758.0
54.265787611,1789.0
54.282498880,1769.0
54.299210148,1744.0
54.315921417,1733.0
54.332632686,1775.0
54.349343955,1765.0
54.366055224,1766.0
54.382766493,1822.0
54.399477762,1717.0
54.416189031,1719.0
54.432900300,1771.0
54.449611569,1830.0
54.466322838,1878.0
54.483034107,1842.0
54.499745376,1740.0
54.516456645,1775.0
54.533167914,1757.0
54.549879183,1830.0
54.566590452,1752.0
54.583301721,1766.0
54.600012990,1771.0
54.616724259,1794.0
54.633435528,1746.0
54.650146797,1686.0
54.666858066,1708.0
54.683569335,1853.0
54.700280604,1795.0
54.716991873,1738.0
54.733703142,1820.0
54.750414411,1725.0
54.767125680,1831.0
54.783836949,1677.0
54.800548218,1786.0
54.817259487,1729.0
54.833970756,1782.0
54.850682025,1736.0
54.867393294,1790.0
54.884104563,1774.0
54.900815832,1858.0
54.917527101,1823.0
54.934238370,1794.0
54.950949639,1772.0
54.967660908,1748.0
54.984372177,1787.0
55.001083446,1878.0
55.017794715,1695.0
55.034505984,1686.0
55.051217253,1697.0
55.067928521,1771.0
55.084639790,1756.0
55.101351059,1748.0
55.118062328,1710.0
55.134773597,1713.0
55.151484866,1791.0
55.168196135,1710.0
55.184907404,1824.0
55.201618673,1783.0
55.218329942,1704.0
55.235041211,1716.0
55.251752480,1708.0
55.268463749,1747.0
55.285175018,1762.0
55.301886287,1777.0
55.318597556,1793.0
55.335308825,1772.0
55.352020094,1722.0
55.368731363,1717.0
55.385442632,1839.0
55.402153901,1706.0
55.418865170,1789.0
55.435576439,1773.0
55.452287708,1798.0
55.468998977,1786.0
55.485710246,1712.0
55.502421515,1763.0
55.519132784,1828.0
55.535844053,1826.0
55.552555322,1828.0
55.569266591,1817.0
55.585977860,1738.0
55.602689129,1804.0
55.619400398,1804.0
55.636111667,1806.0
55.652822936,1706.0
55.669534205,1760.0
55.686245474,1746.0
55.702956743,1758.0
55.719668012,1722.0
55.736379281,1724.0
55.753090550,1770.0
55.769801819,1839.0
55.786513088,1774.0
55.803224357,1800.0
55.819935625,1722.0
55.836646894,1854.0
55.853358163,1819.0
55.870069432,1802.0
55.886780701,1824.0
55.903491970,1712.0
55.920203239,1748.0
55.936914508,1726.0
55.953625777,1845.0
55.970337046,1785.0
55.987048315,1728.0
56.003759584,1793.0
56.020470853,1768.0
56.037182122,1815.0
56.053893391,1809.0
56.070604660,1772.0
56.087315929,1737.0
56.104027198,1732.0
56.120738467,1776.0
56.137449736,1830.0
56.154161005,1809.0
56.170872274,1790.0
56.187583543,1727.0
56.204294812,1824.0
56.221006081,1731.0
56.237717350,1794.0
56.254428619,1729.0
56.271139888,1695.0
56.287851157,1748.0
56.304562426,1745.0
56.321273695,1788.0
56.337984964,1690.0
56.354696233,1768.0
56.371407502,1778.0
56.388118771,1780.0
56.404830040,1775.0
56.421541309,1723.0
56.438252578,1744.0
56.454963847,1759.0
56.471675116,1788.0
56.488386385,1742.0
56.505097654,1731.0
56.521808923,1752.0
56.538520192,1801.0
56.555231461,1718.0
56.571942730,1701.0
56.588653998,1822.0
56.605365267,1758.0
56.622076536,1781.0
56.638787805,1746.0
56.655499074,1744.0
56.672210343,1715.0
56.688921612,1796.0
56.705632881,1754.0
56.722344150,1750.0
56.739055419,1754.0
56.755766688,1650.0
56.772477957,1847.0
56.789189226,1762.0
56.805900495,1769.0
56.822611764,1740.0
56.839323033,1743.0
56.856034302,1736.0
56.872745571,1776.0
56.889456840,1802.0
56.906168109,1773.0
56.922879378,1717.0
56.939590647,1826.0
56.956301916,1808.0
56.973013185,1800.0
56.989724454,1757.0
57.006435723,1744.0
57.023146992,1766.0
57.039858261,1731.0
57.056569530,1827.0
57.073280799,1736.0
57.089992068,1688.0
57.106703337,1752.0
57.123414606,1764.0
57.140125875,1712.0
57.156837144,1835.0
57.173548413,1804.0
57.190259682,1778.0
57.206970951,1812.0
57.223682220,1680.0
57.240393489,1775.0
57.257104758,1770.0
57.273816027,1768.0
57.290527296,1759.0
57.307238565,1902.0
57.323949834,1728.0
57.340661102,1754.0
57.357372371,1776.0
57.374083640,1810.0
57.390794909,1710.0
57.407506178,1719.0
57.424217447,1812.0
57.440928716,1759.0
57.457639985,1760.0
57.474351254,1783.0
57.491062523,1734.0
57.507773792,1742.0
57.524485061,1772.0
57.541196330,1730.0
57.557907599,1777.0
57.574618868,1785.0
57.591330137,1752.0
57.608041406,1809.0
57.624752675,1717.0
57.641463944,1793.0
57.658175213,1753.0
57.674886482,1726.0
57.691597751,1806.0
57.708309020,1778.0
57.725020289,1881.0
57.741731558,1784.0
57.758442827,1660.0
57.775154096,1727.0
57.791865365,1840.0
57.808576634,1827.0
57.825287903,1712.0
57.841999172,1759.0
57.858710441,1822.0
57.875421710,1808.0
57.892132979,1848.0
57.908844248,1746.0
57.925555517,1800.0
57.942266786,1654.0
57.958978055,1750.0
57.975689324,1791.0
57.992400593,1800.0
58.009111862,1757.0
58.025823131,1769.0
58.042534400,1744.0
58.059245669,1772.0
58.075956938,1818.0
58.092668207,1823.0
58.109379475,1801.0
58.126090744,1759.0
58.142802013,1782.0
58.159513282,1742.0
58.176224551,1792.0
58.192935820,1757.0
58.209647089,1761.0
58.226358358,1710.0
58.243069627,1893.0
58.259780896,1753.0
58.276492165,1722.0
58.293203434,1742.0
58.309914703,1807.0
58.326625972,1767.0
58.343337241,1797.0
58.360048510,1771.0
58.376759779,1710.0
58.393471048,1796.0
58.410182317,1765.0
58.426893586,1783.0
58.443604855,1820.0
58.460316124,1732.0
58.477027393,1765.0
58.493738662,1818.0
58.510449931,1788.0
58.527161200,1776.0
58.543872469,1743.0
58.560583738,1769.0
58.577295007,1841.0
58.594006276,1841.0
58.610717545,1705.0
58.627428814,1666.0
58.644140083,1829.0
58.660851352,1735.0
58.677562621,1796.0
58.694273890,1787.0
58.710985159,1786.0
58.727696428,1732.0
58.744407697,1764.0
58.761118966,1779.0
58.777830235,1738.0
58.794541504,1883.0
58.811252773,1825.0
58.827964042,1707.0
58.844675311,1772.0
58.861386579,1729.0
58.878097848,1764.0
58.894809117,1708.0
58.911520386,1777.0
58.928231655,1759.0
58.944942924,1761.0
58.961654193,1756.0
58.978365462,1866.0
58.995076731,1776.0
59.011788000,1823.0
59.028499269,1821.0
59.045210538,1860.0
59.061921807,1744.0
59.078633076,1746.0
59.095344345,1787.0
59.112055614,1773.0
59.128766883,1756.0
59.145478152,1759.0
59.162189421,1827.0
59.178900690,1861.0
59.195611959,1802.0
59.212323228,1776.0
59.229034497,1801.0
59.245745766,1744.0
59.262457035,1805.0
59.279168304,1806.0
59.295879573,1702.0
59.312590842,1797.0
59.329302111,1749.0
59.346013380,1802.0
59.362724649,1831.0
59.379435918,1856.0
59.396147187,1779.0
59.412858456,1794.0
59.429569725,1729.0
59.446280994,1843.0
59.462992263,1743.0
59.479703532,1798.0
59.496414801,1758.0
59.513126070,1857.0
59.529837339,1809.0
59.546548608,1801.0
59.563259877,1709.0
59.579971146,1841.0
59.596682415,1789.0
59.613393684,1710.0
59.630104952,1794.0
59.646816221,1752.0
59.663527490,1789.0
59.680238759,1800.0
59.696950028,1775.0
59.713661297,1787.0
59.730372566,1930.0
59.747083835,1851.0
59.763795104,1730.0
59.780506373,1764.0
59.797217642,1747.0
59.813928911,1792.0
59.830640180,1799.0
59.847351449,1779.0
59.864062718,1728.0
59.880773987,1816.0
59.897485256,1792.0
59.914196525,1797.0
59.930907794,1848.0
59.947619063,1831.0
59.964330332,1787.0
59.981041601,1734.0
59.997752870,1767.0
60.014464139,1729.0
60.031175408,1832.0
60.047886677,1817.0
60.064597946,1758.0
60.081309215,1820.0
60.098020484,1810.0
60.114731753,1760.0
60.131443022,1721.0
60.148154291,1752.0
60.164865560,1823.0
60.181576829,1800.0
60.198288098,1803.0
60.214999367,1813.0
60.231710636,1806.0
60.248421905,1819.0
60.265133174,1807.0
60.281844443,1742.0
60.298555712,1775.0
60.315266981,1825.0
60.331978250,1768.0
60.348689519,1850.0
60.365400788,1803.0
60.382112056,1770.0
60.398823325,1758.0
60.415534594,1814.0
60.432245863,1833.0
60.448957132,1849.0
60.465668401,1820.0
60.482379670,1805.0
60.499090939,1880.0
60.515802208,1762.0
60.532513477,1706.0
60.549224746,1759.0
60.565936015,1726.0
60.582647284,1858.0
60.599358553,1829.0
60.616069822,1871.0
60.632781091,1821.0
60.649492360,1756.0
60.666203629,1814.0
60.682914898,1865.0
60.699626167,1801.0
60.716337436,1788.0
60.733048705,1862.0
60.749759974,1745.0
60.766471243,1832.0
60.783182512,1812.0
60.799893781,1838.0
60.816605050,1737.0
60.833316319,1729.0
60.850027588,1840.0
60.866738857,1794.0
60.883450126,1813.0
60.900161395,1847.0
60.916872664,1784.0
60.933583933,1800.0
60.950295202,1833.0
60.967006471,1791.0
60.983717740,1775.0
61.000429009,1841.0
61.017140278,1772.0
61.033851547,1841.0
61.050562816,1834.0
61.067274085,1877.0
61.083985354,1852.0
61.100696623,1855.0
61.117407892,1847.0
61.134119161,1828.0
61.150830429,1819.0
61.167541698,1824.0
61.184252967,1826.0
61.200964236,1784.0
61.217675505,1911.0
61.234386774,1837.0
61.251098043,1868.0
61.267809312,1842.0
61.284520581,1826.0
61.301231850,1816.0
61.317943119,1846.0
61.334654388,1825.0
61.351365657,1805.0
61.368076926,1788.0
61.384788195,1852.0
61.401499464,1758.0
61.418210733,1837.0
61.434922002,1861.0
61.451633271,1884.0
61.468344540,1783.0
61.485055809,1817.0
61.501767078,1875.0
61.518478347,1818.0
61.535189616,1816.0
61.551900885,1897.0
61.568612154,1816.0
61.585323423,1814.0
61.602034692,1832.0
61.618745961,1831.0
61.635457230,1800.0
61.652168499,1821.0
61.668879768,1810.0
61.685591037,1896.0
61.702302306,1861.0
61.719013575,1922.0
61.735724844,1808.0
61.752436113,1851.0
61.769147382,1800.0
61.785858651,1765.0
61.802569920,1886.0
61.819281189,1902.0
61.835992458,1819.0
61.852703727,1927.0
61.869414996,1905.0
61.886126265,1857.0
61.902837533,1788.0
61.919548802,1873.0
61.936260071,1864.0
61.952971340,1893.0
61.969682609,1803.0
61.986393878,1876.0
62.003105147,1894.0
62.019816416,1933.0
62.036527685,1843.0
62.053238954,1859.0
62.069950223,1892.0
62.086661492,1852.0
62.103372761,1820.0
62.120084030,1861.0
62.136795299,1889.0
62.153506568,1817.0
62.170217837,1834.0
62.186929106,1868.0
62.203640375,1821.0
62.220351644,1916.0
62.237062913,1881.0
62.253774182,1868.0
62.270485451,1854.0
62.287196720,1914.0
62.303907989,1881.0
62.320619258,1921.0
62.337330527,1975.0
62.354041796,1954.0
62.370753065,1903.0
62.387464334,1883.0
62.404175603,1965.0
62.420886872,1967.0
62.437598141,1834.0
62.454309410,1866.0
62.471020679,1915.0
62.487731948,1868.0
62.504443217,1909.0
62.521154486,1916.0
62.537865755,1904.0
62.554577024,1914.0
62.571288293,1916.0
62.587999562,1922.0
62.604710831,1883.0
62.621422100,1907.0
62.638133369,1882.0
62.654844638,1903.0
62.671555906,1872.0
62.688267175,1825.0
62.704978444,1887.0
62.721689713,1907.0
62.738400982,1840.0
62.755112251,1844.0
62.771823520,1858.0
62.788534789,1862.0
62.805246058,1939.0
62.821957327,1803.0
62.838668596,1870.0
62.855379865,1858.0
62.872091134,1894.0
62.888802403,1884.0
62.905513672,1884.0
62.922224941,1868.0
62.938936210,1872.0
62.955647479,1751.0
62.972358748,1915.0
62.989070017,1915.0
63.005781286,2011.0
63.022492555,1827.0
63.039203824,1840.0
63.055915093,1893.0
63.072626362,1894.0
63.089337631,1992.0
63.106048900,1923.0
63.122760169,1889.0
63.139471438,1963.0
63.156182707,1870.0
63.172893976,1878.0
63.189605245,1883.0
63.206316514,1858.0
63.223027783,1905.0
63.239739052,1957.0
63.256450321,1938.0
63.273161590,1857.0
63.289872859,1906.0
63.306584128,1870.0
63.323295397,1964.0
63.340006666,1938.0
63.356717935,1971.0
63.373429204,1987.0
63.390140473,1915.0
63.406851742,1879.0
63.423563010,1882.0
63.440274279,1905.0
63.456985548,1961.0
63.473696817,1963.0
63.490408086,1918.0
63.507119355,1915.0
63.523830624,1871.0
63.540541893,1879.0
63.557253162,1915.0
63.573964431,1847.0
63.590675700,1874.0
63.607386969,2094.0
63.624098238,1911.0
63.640809507,1934.0
63.657520776,1953.0
63.674232045,1994.0
63.690943314,2032.0
63.707654583,1946.0
63.724365852,1871.0
63.741077121,1917.0
63.757788390,1962.0
63.774499659,1891.0
63.791210928,1977.0
63.807922197,1998.0
63.824633466,1939.0
63.841344735,1994.0
63.858056004,1917.0
63.874767273,1907.0
63.891478542,1934.0
63.908189811,1846.0
63.924901080,1947.0
63.941612349,1957.0
63.958323618,2008.0
63.975034887,2042.0
63.991746156,1900.0
64.008457425,1986.0
64.025168694,1999.0
64.041879963,1915.0
64.058591232,1908.0
64.075302501,1962.0
64.092013770,1985.0
64.108725039,2010.0
64.125436308,1914.0
64.142147577,1986.0
64.158858846,2008.0
64.175570115,1985.0
64.192281383,1963.0
64.208992652,2023.0
64.225703921,2022.0
64.242415190,2037.0
64.259126459,2010.0
64.275837728,2035.0
64.292548997,1978.0
64.309260266,1997.0
64.325971535,1963.0
64.342682804,1967.0
64.359394073,2013.0
64.376105342,1925.0
64.392816611,1929.0
64.409527880,1968.0
64.426239149,1967.0
64.442950418,1967.0
64.459661687,1868.0
64.476372956,1996.0
64.493084225,1916.0
64.509795494,1937.0
64.526506763,1983.0
64.543218032,1993.0
64.559929301,1977.0
64.576640570,1965.0
64.593351839,2031.0
64.610063108,1848.0
64.626774377,2024.0
64.643485646,2003.0
64.660196915,1943.0
64.676908184,1883.0
64.693619453,1926.0
64.710330722,1986.0
64.727041991,1991.0
64.743753260,1998.0
64.760464529,1895.0
64.777175798,1996.0
64.793887067,2041.0
64.810598336,2001.0
64.827309605,1976.0
64.844020874,1985.0
64.860732143,1933.0
64.877443412,2114.0
64.894154681,2005.0
64.910865950,2024.0
64.927577219,2014.0
64.944288487,1915.0
64.960999756,1954.0
64.977711025,2006.0
64.994422294,1978.0
65.011133563,2002.0
65.027844832,1958.0
65.044556101,1989.0
65.061267370,2049.0
65.077978639,1934.0
65.094689908,2011.0
65.111401177,2017.0
65.128112446,2044.0
65.144823715,1989.0
65.161534984,1979.0
65.178246253,2071.0
65.194957522,1975.0
65.211668791,2128.0
65.228380060,2017.0
65.245091329,2061.0
65.261802598,1975.0
65.278513867,2021.0
65.295225136,2056.0
65.311936405,2037.0
65.328647674,2025.0
65.345358943,1980.0
65.362070212,2066.0
65.378781481,1988.0
65.395492750,2052.0
65.412204019,2045.0
65.428915288,2073.0
65.445626557,2100.0
65.462337826,2029.0
65.479049095,2008.0
65.495760364,2064.0
65.512471633,1994.0
65.529182902,2030.0
65.545894171,2098.0
65.562605440,2104.0
65.579316709,2114.0
65.596027978,2081.0
65.612739247,1953.0
65.629450516,2030.0
65.646161785,2032.0
65.662873054,2099.0
65.679584323,2100.0
65.696295592,1985.0
65.713006860,2060.0
65.729718129,1982.0
65.746429398,2011.0
65.763140667,2040.0
65.779851936,1981.0
65.796563205,1969.0
65.813274474,2027.0
65.829985743,2039.0
65.846697012,2072.0
65.863408281,2057.0
65.880119550,2001.0
65.896830819,2037.0
65.913542088,2040.0
65.930253357,2024.0
65.946964626,2025.0
65.963675895,2036.0
65.980387164,2059.0
65.997098433,2076.0
66.013809702,2071.0
66.030520971,1990.0
66.047232240,2056.0
66.063943509,2112.0
66.080654778,2134.0
66.097366047,2086.0
66.114077316,1959.0
66.130788585,2114.0
66.147499854,2004.0
66.164211123,2041.0
66.180922392,2082.0
66.197633661,2041.0
66.214344930,2068.0
66.231056199,1988.0
66.247767468,2029.0
66.264478737,2004.0
66.281190006,1968.0
66.297901275,2054.0
66.314612544,2095.0
66.331323813,2105.0
66.348035082,2070.0
66.364746351,2006.0
66.381457620,2034.0
66.398168889,2007.0
66.414880158,2139.0
66.431591427,2091.0
66.448302696,2088.0
66.465013964,2022.0
66.481725233,2040.0
66.498436502,2059.0
66.515147771,2021.0
66.531859040,2061.0
66.548570309,2056.0
66.565281578,2008.0
66.581992847,2040.0
66.598704116,2031.0
66.615415385,1965.0
66.632126654,2100.0
66.648837923,2064.0
66.665549192,2008.0
66.682260461,2054.0
66.698971730,2086.0
66.715682999,1985.0
66.732394268,2072.0
66.749105537,2012.0
66.765816806,2008.0
66.782528075,2060.0
66.799239344,1961.0
66.815950613,2038.0
66.832661882,2020.0
66.849373151,2062.0
66.866084420,2055.0
66.882795689,2070.0
66.899506958,2024.0
66.916218227,2097.0
66.932929496,2147.0
66.949640765,2114.0
66.966352034,2104.0
66.983063303,2121.0
66.999774572,2016.0
67.016485841,2063.0
67.033197110,2009.0
67.049908379,2048.0
67.066619648,2009.0
67.083330917,2083.0
67.100042186,2020.0
67.116753455,2087.0
67.133464724,2021.0
67.150175993,2112.0
67.166887262,2032.0
67.183598531,2128.0
67.200309800,2031.0
67.217021069,2100.0
67.233732337,2025.0
67.250443606,1997.0
67.267154875,2126.0
67.283866144,2090.0
67.300577413,2039.0
67.317288682,2147.0
67.333999951,2180.0
67.350711220,2097.0
67.367422489,2042.0
67.384133758,1972.0
67.400845027,2029.0
67.417556296,2157.0
67.434267565,2087.0
67.450978834,2146.0
67.467690103,2067.0
67.484401372,2034.0
67.501112641,2037.0
67.517823910,2013.0
67.534535179,2077.0
67.551246448,2090.0
67.567957717,2024.0
67.584668986,1998.0
67.601380255,2004.0
67.618091524,2103.0
67.634802793,2099.0
67.651514062,2008.0
67.668225331,2021.0
67.684936600,2045.0
67.701647869,2045.0
67.718359138,2086.0
67.735070407,2041.0
67.751781676,2110.0
67.768492945,2030.0
67.785204214,2126.0
67.801915483,2123.0
67.818626752,2134.0
67.835338021,2078.0
67.852049290,2102.0
67.868760559,2078.0
67.885471828,2033.0
67.902183097,2054.0
67.918894366,2061.0
67.935605635,2142.0
67.952316904,2067.0
67.969028173,2072.0
67.985739441,2067.0
68.002450710,2016.0
68.019161979,2103.0
68.035873248,2055.0
68.052584517,2049.0
68.069295786,2054.0
68.086007055,2203.0
68.102718324,1987.0
68.119429593,2124.0
68.136140862,2167.0
68.152852131,2079.0
68.169563400,2090.0
68.186274669,2009.0
68.202985938,2019.0
68.219697207,2131.0
68.236408476,2086.0
68.253119745,2003.0
68.269831014,2064.0
68.286542283,2014.0
68.303253552,2061.0
68.319964821,2078.0
68.336676090,2054.0
68.353387359,2107.0
68.370098628,2044.0
68.386809897,2092.0
68.403521166,2046.0
68.420232435,2021.0
68.436943704,2085.0
68.453654973,2074.0
68.470366242,2098.0
68.487077511,2022.0
68.503788780,2051.0
68.520500049,2055.0
68.537211318,2027.0
68.553922587,2127.0
68.570633856,2025.0
68.587345125,2063.0
68.604056394,2106.0
68.620767663,2089.0
68.637478932,2092.0
68.654190201,2059.0
68.670901470,2031.0
68.687612739,2046.0
68.704324008,2070.0
68.721035277,2058.0
68.737746546,2064.0
68.754457814,2070.0
68.771169083,2085.0
68.787880352,2114.0
68.804591621,2023.0
68.821302890,1994.0
68.838014159,2034.0
68.854725428,1965.0
68.871436697,1992.0
68.888147966,2008.0
68.904859235,2093.0
68.921570504,2047.0
68.938281773,2002.0
68.954993042,2092.0
68.971704311,2014.0
68.988415580,2044.0
69.005126849,2024.0
69.021838118,2121.0
69.038549387,2018.0
69.055260656,2045.0
69.071971925,2122.0
69.088683194,2015.0
69.105394463,2149.0
69.122105732,2061.0
69.138817001,2037.0
69.155528270,2081.0
69.172239539,2037.0
69.188950808,1978.0
69.205662077,2013.0
69.222373346,1940.0
69.239084615,2088.0
69.255795884,2071.0
69.272507153,2086.0
69.289218422,2067.0
69.305929691,2019.0
69.322640960,1967.0
69.339352229,2077.0
69.356063498,1974.0
69.372774767,2027.0
69.389486036,2004.0
69.406197305,1921.0
69.422908574,2060.0
69.439619843,1992.0
69.456331112,1962.0
69.473042381,1990.0
69.489753650,2013.0
69.506464919,2056.0
69.523176187,1996.0
69.539887456,1961.0
69.556598725,1995.0
69.573309994,1962.0
69.590021263,2053.0
69.606732532,1986.0
69.623443801,2011.0
69.640155070,1957.0
69.656866339,2068.0
69.673577608,2050.0
69.690288877,2006.0
69.707000146,1990.0
69.723711415,1967.0
69.740422684,1952.0
69.757133953,1894.0
69.773845222,1980.0
69.790556491,2005.0
69.807267760,1936.0
69.823979029,2009.0
69.840690298,2071.0
69.857401567,2023.0
69.874112836,2025.0
69.890824105,1988.0
69.907535374,1962.0
69.924246643,2022.0
69.940957912,2011.0
69.957669181,1938.0
69.974380450,1874.0
69.991091719,1977.0
70.007802988,1992.0
70.024514257,1972.0
70.041225526,1953.0
70.057936795,2006.0
70.074648064,1977.0
70.091359333,1910.0
70.108070602,1958.0
70.124781871,2031.0
70.141493140,2015.0
70.158204409,2000.0
70.174915678,1950.0
70.191626947,1995.0
70.208338216,1958.0
70.225049485,1962.0
70.241760754,2108.0
70.258472023,1925.0
70.275183291,1979.0
70.291894560,1995.0
70.308605829,1970.0
70.325317098,2009.0
70.342028367,2009.0
70.358739636,2010.0
70.375450905,2001.0
70.392162174,2015.0
70.408873443,2011.0
70.425584712,2057.0
70.442295981,2054.0
70.459007250,2047.0
70.475718519,1978.0
70.492429788,1939.0
70.509141057,1992.0
70.525852326,1976.0
70.542563595,1993.0
70.559274864,2030.0
70.575986133,1977.0
70.592697402,1887.0
70.609408671,2046.0
70.626119940,2008.0
70.642831209,1942.0
70.659542478,2020.0
70.676253747,1925.0
70.692965016,1933.0
70.709676285,1931.0
70.726387554,1995.0
70.743098823,1978.0
70.759810092,2013.0
70.776521361,1997.0
70.793232630,1991.0
70.809943899,2001.0
70.826655168,1964.0
70.843366437,1986.0
70.860077706,1990.0
70.876788975,2008.0
70.893500244,1974.0
70.910211513,1986.0
70.926922782,1985.0
70.943634051,2035.0
70.960345320,1984.0
70.977056589,1972.0
70.993767858,1940.0
71.010479127,1957.0
71.027190396,1934.0
71.043901664,1954.0
71.060612933,2005.0
71.077324202,1919.0
71.094035471,1958.0
71.110746740,1855.0
71.127458009,2031.0
71.144169278,1937.0
71.160880547,1962.0
71.177591816,1995.0
71.194303085,1934.0
71.211014354,1952.0
71.227725623,1979.0
71.244436892,1925.0
71.261148161,1910.0
71.277859430,1975.0
71.294570699,1904.0
71.311281968,1938.0
71.327993237,1960.0
71.344704506,1978.0
71.361415775,1918.0
71.378127044,1862.0
71.394838313,1989.0
71.411549582,1954.0
71.428260851,1951.0
71.444972120,1915.0
71.461683389,1902.0
71.478394658,1986.0
71.495105927,1978.0
71.511817196,1986.0
71.528528465,1946.0
71.545239734,1918.0
71.561951003,1966.0
71.578662272,1860.0
71.595373541,1934.0
71.612084810,2003.0
71.628796079,1947.0
71.645507348,1802.0
71.662218617,1958.0
71.678929886,1855.0
71.695641155,1927.0
71.712352424,1943.0
71.729063693,1953.0
71.745774962,1929.0
71.762486231,1870.0
71.779197500,1895.0
71.795908768,1885.0
71.812620037,1856.0
71.829331306,1835.0
71.846042575,1961.0
71.862753844,1959.0
71.879465113,1841.0
71.896176382,1885.0
71.912887651,1855.0
71.929598920,1886.0
71.946310189,1952.0
71.963021458,1871.0
71.979732727,1887.0
71.996443996,1944.0
72.013155265,1933.0
72.029866534,1860.0
72.046577803,1938.0
72.063289072,1947.0
72.080000341,1890.0
72.096711610,1855.0
72.113422879,1884.0
72.130134148,1928.0
72.146845417,1895.0
72.163556686,1878.0
72.180267955,1932.0
72.196979224,1958.0
72.213690493,1839.0
72.230401762,1961.0
72.247113031,1926.0
72.263824300,1925.0
72.280535569,1922.0
72.297246838,1847.0
72.313958107,1916.0
72.330669376,1947.0
72.347380645,1836.0
72.364091914,1879.0
72.380803183,1857.0
72.397514452,1842.0
72.414225721,1959.0
72.430936990,1907.0
72.447648259,1948.0
72.464359528,1835.0
72.481070797,1821.0
72.497782066,1908.0
72.514493335,1883.0
72.531204604,1890.0
72.547915873,1932.0
72.564627141,1898.0
72.581338410,1866.0
72.598049679,1873.0
72.614760948,1828.0
72.631472217,1817.0
72.648183486,1871.0
72.664894755,1938.0
72.681606024,1810.0
72.698317293,1801.0
72.715028562,1828.0
72.731739831,1848.0
72.748451100,1856.0
72.765162369,1864.0
72.781873638,1837.0
72.798584907,1850.0
72.815296176,2030.0
72.832007445,1828.0
72.848718714,1911.0
72.865429983,1835.0
72.882141252,1812.0
72.898852521,1829.0
72.915563790,1858.0
72.932275059,1826.0
72.948986328,1787.0
72.965697597,1842.0
72.982408866,1898.0
72.999120135,1875.0
73.015831404,1792.0
73.032542673,1830.0
73.049253942,1919.0
73.065965211,1829.0
73.082676480,1851.0
73.099387749,1898.0
73.116099018,1859.0
73.132810287,1898.0
73.149521556,1872.0
73.166232825,1895.0
73.182944094,1828.0
73.199655363,1836.0
73.216366632,1883.0
73.233077901,1837.0
73.249789170,1867.0
73.266500439,1831.0
73.283211708,1903.0
73.299922977,1895.0
73.316634245,1875.0
73.333345514,1839.0
73.350056783,1834.0
73.366768052,1874.0
73.383479321,1786.0
73.400190590,1844.0
73.416901859,1901.0
73.433613128,1794.0
73.450324397,1829.0
73.467035666,1857.0
73.483746935,1878.0
73.500458204,1794.0
73.517169473,1801.0
73.533880742,1834.0
73.550592011,1834.0
73.567303280,1750.0
73.584014549,1798.0
73.600725818,1834.0
73.617437087,1836.0
73.634148356,1825.0
73.650859625,1783.0
73.667570894,1861.0
73.684282163,1813.0
73.700993432,1828.0
73.717704701,1750.0
73.734415970,1841.0
73.751127239,1702.0
73.767838508,1795.0
73.784549777,1806.0
73.801261046,1792.0
73.817972315,1904.0
73.834683584,1840.0
73.851394853,1772.0
73.868106122,1777.0
73.884817391,1795.0
73.901528660,1820.0
73.918239929,1808.0
73.934951198,1790.0
73.951662467,1813.0
73.968373736,1724.0
73.985085005,1831.0
74.001796274,1847.0
74.018507543,1759.0
74.035218812,1798.0
74.051930081,1840.0
74.068641350,1855.0
74.085352618,1773.0
74.102063887,1840.0
74.118775156,1824.0
74.135486425,1791.0
74.152197694,1853.0
74.168908963,1779.0
74.185620232,1779.0
74.202331501,1737.0
74.219042770,1756.0
74.235754039,1829.0
74.252465308,1825.0
74.269176577,1824.0
74.285887846,1743.0
74.302599115,1747.0
74.319310384,1761.0
74.336021653,1813.0
74.352732922,1772.0
74.369444191,1783.0
74.386155460,1751.0
74.402866729,1789.0
74.419577998,1782.0
74.436289267,1825.0
74.453000536,1773.0
74.469711805,1817.0
74.486423074,1773.0
74.503134343,1846.0
74.519845612,1839.0
74.536556881,1687.0
74.553268150,1701.0
74.569979419,1780.0
74.586690688,1815.0
74.603401957,1818.0
74.620113226,1752.0
74.636824495,1816.0
74.653535764,1805.0
74.670247033,1767.0
74.686958302,1792.0
74.703669571,1767.0
74.720380840,1704.0
74.737092109,1809.0
74.753803378,1811.0
74.770514647,1701.0
74.787225916,1824.0
74.803937185,1881.0
74.820648454,1837.0
74.837359722,1791.0
74.854070991,1783.0
74.870782260,1822.0
74.887493529,1849.0
74.904204798,1838.0
74.920916067,1804.0
74.937627336,1785.0
74.954338605,1761.0
74.971049874,1785.0
74.987761143,1795.0
75.004472412,1834.0
75.021183681,1928.0
75.037894950,1742.0
75.054606219,1782.0
75.071317488,1870.0
75.088028757,1805.0
75.104740026,1807.0
75.121451295,1885.0
75.138162564,1838.0
75.154873833,1866.0
75.171585102,1823.0
75.188296371,1803.0
75.205007640,1823.0
75.221718909,1764.0
75.238430178,1869.0
75.255141447,1922.0
75.271852716,1755.0
75.288563985,1844.0
75.305275254,1901.0
75.321986523,1809.0
75.338697792,1895.0
75.355409061,1867.0
75.372120330,1856.0
75.388831599,1933.0
75.405542868,1879.0
75.422254137,1835.0
75.438965406,1747.0
75.455676675,1900.0
75.472387944,1834.0
75.489099213,1958.0
75.505810482,1901.0
75.522521751,1992.0
75.539233020,1937.0
75.555944289,1939.0
75.572655558,1943.0
75.589366827,1991.0
75.606078095,2022.0
75.622789364,1970.0
75.639500633,1950.0
75.656211902,2005.0
75.672923171,2024.0
75.689634440,2052.0
75.706345709,1974.0
75.723056978,2082.0
75.739768247,2120.0
75.756479516,2090.0
75.773190785,2084.0
75.789902054,2176.0
75.806613323,2209.0
75.823324592,2162.0
75.840035861,2195.0
75.856747130,2228.0
75.873458399,2182.0
75.890169668,2220.0
75.906880937,2306.0
75.923592206,2330.0
75.940303475,2417.0
75.957014744,2336.0
75.973726013,2242.0
75.990437282,2333.0
76.007148551,2226.0
76.023859820,2220.0
76.040571089,2290.0
76.057282358,2247.0
76.073993627,2195.0
76.090704896,2302.0
76.107416165,2128.0
76.124127434,2161.0
76.140838703,2197.0
76.157549972,2172.0
76.174261241,2145.0
76.190972510,2120.0
76.207683779,2173.0
76.224395048,2010.0
76.241106317,2111.0
76.257817586,1957.0
76.274528855,2028.0
76.291240124,1927.0
76.307951393,1887.0
76.324662662,1850.0
76.341373931,1907.0
76.358085199,1821.0
76.374796468,1890.0
76.391507737,1845.0
76.408219006,1903.0
76.424930275,1788.0
76.441641544,1831.0
76.458352813,1737.0
76.475064082,1781.0
76.491775351,1742.0
76.508486620,1785.0
76.525197889,1794.0
76.541909158,1780.0
76.558620427,1728.0
76.575331696,1666.0
76.592042965,1743.0
76.608754234,1730.0
76.625465503,1710.0
76.642176772,1669.0
76.658888041,1693.0
76.675599310,1665.0
76.692310579,1696.0
76.709021848,1707.0
76.725733117,1648.0
76.742444386,1817.0
76.759155655,1707.0
76.775866924,1682.0
76.792578193,1725.0
76.809289462,1686.0
76.826000731,1741.0
76.842712000,1613.0
76.859423269,1725.0
76.876134538,1642.0
76.892845807,1673.0
76.909557076,1691.0
76.926268345,1704.0
76.942979614,1580.0
76.959690883,1604.0
76.976402152,1599.0
76.993113421,1641.0
77.009824690,1666.0
77.026535959,1646.0
77.043247228,1655.0
77.059958497,1661.0
77.076669766,1661.0
77.093381035,1680.0
77.110092304,1656.0
77.126803572,1619.0
77.143514841,1654.0
77.160226110,1627.0
77.176937379,1691.0
77.193648648,1732.0
77.210359917,1666.0
77.227071186,1671.0
77.243782455,1606.0
77.260493724,1648.0
77.277204993,1649.0
77.293916262,1672.0
77.310627531,1648.0
77.327338800,1644.0
77.344050069,1651.0
77.360761338,1636.0
77.377472607,1669.0
77.394183876,1665.0
77.410895145,1578.0
77.427606414,1681.0
77.444317683,1656.0
77.461028952,1604.0
77.477740221,1624.0
77.494451490,1645.0
77.511162759,1660.0
77.527874028,1664.0
77.544585297,1663.0
77.561296566,1552.0
77.578007835,1615.0
77.594719104,1643.0
77.611430373,1722.0
77.628141642,1631.0
77.644852911,1676.0
77.661564180,1741.0
77.678275449,1626.0
77.694986718,1659.0
77.711697987,1602.0
77.728409256,1663.0
77.745120525,1636.0
77.761831794,1552.0
77.778543063,1597.0
77.795254332,1594.0
77.811965601,1585.0
77.828676870,1621.0
77.845388139,1623.0
77.862099408,1644.0
77.878810676,1602.0
77.895521945,1596.0
77.912233214,1639.0
77.928944483,1564.0
77.945655752,1649.0
77.962367021,1641.0
77.979078290,1578.0
77.995789559,1767.0
78.012500828,1589.0
78.029212097,1546.0
78.045923366,1635.0
78.062634635,1632.0
78.079345904,1590.0
78.096057173,1634.0
78.112768442,1551.0
78.129479711,1564.0
78.146190980,1588.0
78.162902249,1561.0
78.179613518,1571.0
78.196324787,1554.0
78.213036056,1575.0
78.229747325,1526.0
78.246458594,1555.0
78.263169863,1629.0
78.279881132,1584.0
78.296592401,1606.0
78.313303670,1638.0
78.330014939,1582.0
78.346726208,1583.0
78.363437477,1577.0
78.380148746,1622.0
78.396860015,1590.0
78.413571284,1615.0
78.430282553,1540.0
78.446993822,1623.0
78.463705091,1599.0
78.480416360,1581.0
78.497127629,1560.0
78.513838898,1600.0
78.530550167,1602.0
78.547261436,1544.0
78.563972705,1573.0
78.580683974,1579.0
78.597395243,1578.0
78.614106512,1554.0
78.630817781,1537.0
78.647529049,1522.0
78.664240318,1552.0
78.680951587,1578.0
78.697662856,1587.0
78.714374125,1591.0
78.731085394,1679.0
78.747796663,1597.0
78.764507932,1574.0
78.781219201,1543.0
78.797930470,1587.0
78.814641739,1557.0
78.831353008,1531.0
78.848064277,1540.0
78.864775546,1558.0
78.881486815,1550.0
78.898198084,1524.0
78.914909353,1527.0
78.931620622,1529.0
78.948331891,1497.0
78.965043160,1596.0
78.981754429,1574.0
78.998465698,1624.0
79.015176967,1574.0
79.031888236,1596.0
79.048599505,1579.0
79.065310774,1558.0
79.082022043,1564.0
79.098733312,1588.0
79.115444581,1491.0
79.132155850,1566.0
79.148867119,1622.0
79.165578388,1586.0
79.182289657,1540.0
79.199000926,1529.0
79.215712195,1530.0
79.232423464,1544.0
79.249134733,1563.0
79.265846002,1505.0
79.282557271,1572.0
79.299268540,1570.0
79.315979809,1529.0
79.332691078,1635.0
79.349402347,1513.0
79.366113616,1587.0
79.382824885,1482.0
79.399536153,1530.0
79.416247422,1585.0
79.432958691,1577.0
79.449669960,1505.0
79.466381229,1528.0
79.483092498,1588.0
79.499803767,1528.0
79.516515036,1629.0
79.533226305,1579.0
79.549937574,1529.0
79.566648843,1511.0
79.583360112,1498.0
79.600071381,1543.0
79.616782650,1552.0
79.633493919,1504.0
79.650205188,1619.0
79.666916457,1559.0
79.683627726,1543.0
79.700338995,1545.0
79.717050264,1541.0
79.733761533,1563.0
79.750472802,1620.0
79.767184071,1518.0
79.783895340,1546.0
79.800606609,1542.0
79.817317878,1560.0
79.834029147,1517.0
79.850740416,1542.0
79.867451685,1519.0
79.884162954,1618.0
79.900874223,1567.0
79.917585492,1503.0
79.934296761,1545.0
79.951008030,1434.0
79.967719299,1531.0
79.984430568,1450.0
80.001141837,1536.0
80.017853106,1589.0
80.034564375,1519.0
80.051275644,1556.0
80.067986913,1473.0
80.084698182,1559.0
80.101409451,1626.0
80.118120720,1526.0
80.134831989,1513.0
80.151543258,1485.0
80.168254526,1480.0
80.184965795,1576.0
80.201677064,1538.0
80.218388333,1530.0
80.235099602,1496.0
80.251810871,1494.0
80.268522140,1536.0
80.285233409,1465.0
80.301944678,1516.0
80.318655947,1511.0
80.335367216,1537.0
80.352078485,1531.0
80.368789754,1594.0
80.385501023,1572.0
80.402212292,1554.0
80.418923561,1554.0
80.435634830,1542.0
80.452346099,1547.0
80.469057368,1533.0
80.485768637,1592.0
80.502479906,1461.0
80.519191175,1656.0
80.535902444,1446.0
80.552613713,1555.0
80.569324982,1558.0
80.586036251,1500.0
80.602747520,1516.0
80.619458789,1489.0
80.636170058,1533.0
80.652881327,1553.0
80.669592596,1536.0
80.686303865,1537.0
80.703015134,1561.0
80.719726403,1454.0
80.736437672,1517.0
80.753148941,1451.0
80.769860210,1449.0
80.786571479,1483.0
80.803282748,1481.0
80.819994017,1476.0
80.836705286,1495.0
80.853416555,1521.0
80.870127824,1494.0
80.886839093,1577.0
80.903550362,1486.0
80.920261630,1508.0
80.936972899,1441.0
80.953684168,1519.0
80.970395437,1494.0
80.987106706,1556.0
81.003817975,1524.0
81.020529244,1516.0
81.037240513,1525.0
81.053951782,1451.0
81.070663051,1509.0
81.087374320,1488.0
81.104085589,1517.0
81.120796858,1498.0
81.137508127,1535.0
81.154219396,1481.0
81.170930665,1528.0
81.187641934,1499.0
81.204353203,1498.0
81.221064472,1476.0
81.237775741,1536.0
81.254487010,1443.0
81.271198279,1431.0
81.287909548,1405.0
81.304620817,1500.0
81.321332086,1471.0
81.338043355,1485.0
81.354754624,1516.0
81.371465893,1490.0
81.388177162,1445.0
81.404888431,1569.0
81.421599700,1535.0
81.438310969,1388.0
81.455022238,1463.0
81.471733507,1482.0
81.488444776,1457.0
81.505156045,1568.0
81.521867314,1471.0
81.538578583,1510.0
81.555289852,1512.0
81.572001121,1509.0
81.588712390,1476.0
81.605423659,1457.0
81.622134928,1532.0
81.638846197,1514.0
81.655557466,1471.0
81.672268735,1620.0
81.688980003,1452.0
81.705691272,1453.0
81.722402541,1514.0
81.739113810,1506.0
81.755825079,1433.0
81.772536348,1420.0
81.789247617,1478.0
81.805958886,1365.0
81.822670155,1489.0
81.839381424,1568.0
81.856092693,1452.0
81.872803962,1499.0
81.889515231,1467.0
81.906226500,1508.0
81.922937769,1475.0
81.939649038,1407.0
81.956360307,1468.0
81.973071576,1530.0
81.989782845,1481.0
82.006494114,1468.0
82.023205383,1437.0
82.039916652,1458.0
82.056627921,1511.0
82.073339190,1532.0
82.090050459,1482.0
82.106761728,1530.0
82.123472997,1378.0
82.140184266,1460.0
82.156895535,1441.0
82.173606804,1517.0
82.190318073,1450.0
82.207029342,1497.0
82.223740611,1466.0
82.240451880,1511.0
82.257163149,1505.0
82.273874418,1544.0
82.290585687,1479.0
82.307296956,1445.0
82.324008225,1456.0
82.340719494,1471.0
82.357430763,1395.0
82.374142032,1439.0
82.390853301,1416.0
82.407564570,1464.0
82.424275839,1462.0
82.440987107,1498.0
82.457698376,1467.0
82.474409645,1433.0
82.491120914,1477.0
82.507832183,1522.0
82.524543452,1440.0
82.541254721,1470.0
82.557965990,1456.0
82.574677259,1471.0
82.591388528,1434.0
82.608099797,1396.0
82.624811066,1467.0
82.641522335,1444.0
82.658233604,1566.0
82.674944873,1450.0
82.691656142,1531.0
82.708367411,1391.0
82.725078680,1451.0
82.741789949,1436.0
82.758501218,1409.0
82.775212487,1456.0
82.791923756,1473.0
82.808635025,1422.0
82.825346294,1465.0
82.842057563,1445.0
82.858768832,1492.0
82.875480101,1430.0
82.892191370,1481.0
82.908902639,1520.0
82.925613908,1417.0
82.942325177,1408.0
82.959036446,1377.0
82.975747715,1493.0
82.992458984,1439.0
83.009170253,1476.0
83.025881522,1498.0
83.042592791,1423.0
83.059304060,1360.0
83.076015329,1471.0
83.092726598,1369.0
83.109437867,1445.0
83.126149136,1505.0
83.142860405,1533.0
83.159571674,1394.0
83.176282943,1482.0
83.192994212,1420.0
83.209705480,1427.0
83.226416749,1472.0
83.243128018,1476.0
83.259839287,1395.0
83.276550556,1504.0
83.293261825,1453.0
83.309973094,1458.0
83.326684363,1565.0
83.343395632,1450.0
83.360106901,1383.0
83.376818170,1406.0
83.393529439,1490.0
83.410240708,1362.0
83.426951977,1408.0
83.443663246,1432.0
83.460374515,1518.0
83.477085784,1497.0
83.493797053,1493.0
83.510508322,1467.0
83.527219591,1447.0
83.543930860,1445.0
83.560642129,1499.0
83.577353398,1441.0
83.594064667,1476.0
83.610775936,1422.0
83.627487205,1448.0
83.644198474,1408.0
83.660909743,1477.0
83.677621012,1382.0
83.694332281,1481.0
83.711043550,1519.0
83.727754819,1406.0
83.744466088,1498.0
83.761177357,1449.0
83.777888626,1485.0
83.794599895,1418.0
83.811311164,1470.0
83.828022433,1509.0
83.844733702,1386.0
83.861444971,1352.0
83.878156240,1445.0
83.894867509,1462.0
83.911578778,1399.0
83.928290047,1390.0
83.945001316,1399.0
83.961712584,1418.0
83.978423853,1470.0
83.995135122,1409.0
84.011846391,1385.0
84.028557660,1375.0
84.045268929,1435.0
84.061980198,1447.0
84.078691467,1467.0
84.095402736,1375.0
84.112114005,1405.0
84.128825274,1413.0
84.145536543,1451.0
84.162247812,1447.0
84.178959081,1464.0
84.195670350,1548.0
84.212381619,1454.0
84.229092888,1391.0
84.245804157,1418.0
84.262515426,1504.0
84.279226695,1431.0
84.295937964,1410.0
84.312649233,1423.0
84.329360502,1406.0
84.346071771,1402.0
84.362783040,1402.0
84.379494309,1452.0
84.396205578,1492.0
84.412916847,1378.0
84.429628116,1440.0
84.446339385,1447.0
84.463050654,1454.0
84.479761923,1304.0
84.496473192,1416.0
84.513184461,1437.0
84.529895730,1412.0
84.546606999,1383.0
84.563318268,1417.0
84.580029537,1473.0
84.596740806,1492.0
84.613452075,1445.0
84.630163344,1424.0
84.646874613,1313.0
84.663585882,1380.0
84.680297151,1428.0
84.697008420,1392.0
84.713719689,1432.0
84.730430957,1479.0
84.747142226,1453.0
84.763853495,1397.0
84.780564764,1390.0
84.797276033,1474.0
84.813987302,1440.0
84.830698571,1440.0
84.847409840,1406.0
84.864121109,1430.0
84.880832378,1389.0
84.897543647,1400.0
84.914254916,1415.0
84.930966185,1407.0
84.947677454,1500.0
84.964388723,1467.0
84.981099992,1499.0
84.997811261,1454.0
85.014522530,1409.0
85.031233799,1456.0
85.047945068,1481.0
85.064656337,1412.0
85.081367606,1447.0
85.098078875,1407.0
85.114790144,1403.0
85.131501413,1408.0
85.148212682,1412.0
85.164923951,1485.0
85.181635220,1380.0
85.198346489,1446.0
85.215057758,1442.0
85.231769027,1334.0
85.248480296,1446.0
85.265191565,1370.0
85.281902834,1389.0
85.298614103,1397.0
85.315325372,1446.0
85.332036641,1410.0
85.348747910,1362.0
85.365459179,1438.0
85.382170448,1367.0
85.398881717,1373.0
85.415592986,1437.0
85.432304255,1413.0
85.449015524,1319.0
85.465726793,1451.0
85.482438061,1385.0
85.499149330,1433.0
85.515860599,1362.0
85.532571868,1422.0
85.549283137,1427.0
85.565994406,1412.0
85.582705675,1440.0
85.599416944,1432.0
85.616128213,1396.0
85.632839482,1400.0
85.649550751,1366.0
85.666262020,1425.0
85.682973289,1434.0
85.699684558,1407.0
85.716395827,1360.0
85.733107096,1373.0
85.749818365,1401.0
85.766529634,1313.0
85.783240903,1330.0
85.799952172,1407.0
85.816663441,1442.0
85.833374710,1418.0
85.850085979,1432.0
85.866797248,1502.0
85.883508517,1381.0
85.900219786,1463.0
85.916931055,1428.0
85.933642324,1405.0
85.950353593,1360.0
85.967064862,1398.0
85.983776131,1453.0
86.000487400,1358.0
86.017198669,1423.0
86.033909938,1421.0
86.050621207,1409.0
86.067332476,1470.0
86.084043745,1375.0
86.100755014,1419.0
86.117466283,1422.0
86.134177552,1387.0
86.150888821,1396.0
86.167600090,1357.0
86.184311359,1337.0
86.201022628,1344.0
86.217733897,1421.0
86.234445166,1462.0
86.251156434,1374.0
86.267867703,1403.0
86.284578972,1446.0
86.301290241,1371.0
86.318001510,1423.0
86.334712779,1359.0
86.351424048,1456.0
86.368135317,1364.0
86.384846586,1416.0
86.401557855,1379.0
86.418269124,1489.0
86.434980393,1394.0
86.451691662,1426.0
86.468402931,1442.0
86.485114200,1437.0
86.501825469,1392.0
86.518536738,1370.0
86.535248007,1446.0
86.551959276,1430.0
86.568670545,1386.0
86.585381814,1397.0
86.602093083,1369.0
86.618804352,1421.0
86.635515621,1422.0
86.652226890,1350.0
86.668938159,1358.0
86.685649428,1401.0
86.702360697,1369.0
86.719071966,1378.0
86.735783235,1326.0
86.752494504,1338.0
86.769205773,1410.0
86.785917042,1424.0
86.802628311,1363.0
86.819339580,1311.0
86.836050849,1377.0
86.852762118,1365.0
86.869473387,1338.0
86.886184656,1369.0
86.902895925,1418.0
86.919607194,1400.0
86.936318463,1330.0
86.953029732,1381.0
86.969741001,1425.0
86.986452270,1451.0
87.003163539,1375.0
87.019874807,1357.0
87.036586076,1375.0
87.053297345,1412.0
87.070008614,1367.0
87.086719883,1371.0
87.103431152,1391.0
87.120142421,1405.0
87.136853690,1416.0
87.153564959,1282.0
87.170276228,1339.0
87.186987497,1361.0
87.203698766,1402.0
87.220410035,1330.0
87.237121304,1346.0
87.253832573,1362.0
87.270543842,1377.0
87.287255111,1393.0
87.303966380,1329.0
87.320677649,1387.0
87.337388918,1477.0
87.354100187,1449.0
87.370811456,1407.0
87.387522725,1462.0
87.404233994,1374.0
87.420945263,1412.0
87.437656532,1350.0
87.454367801,1343.0
87.471079070,1388.0
87.487790339,1328.0
87.504501608,1401.0
87.521212877,1350.0
87.537924146,1426.0
87.554635415,1294.0
87.571346684,1376.0
87.588057953,1360.0
87.604769222,1349.0
87.621480491,1384.0
87.638191760,1354.0
87.654903029,1363.0
87.671614298,1399.0
87.688325567,1379.0
87.705036836,1370.0
87.721748105,1507.0
87.738459374,1397.0
87.755170643,1356.0
87.771881911,1399.0
87.788593180,1350.0
87.805304449,1374.0
87.822015718,1343.0
87.838726987,1345.0
87.855438256,1405.0
87.872149525,1313.0
87.888860794,1360.0
87.905572063,1380.0
87.922283332,1395.0
87.938994601,1377.0
87.955705870,1401.0
87.972417139,1304.0
87.989128408,1380.0
88.005839677,1296.0
88.022550946,1381.0
88.039262215,1340.0
88.055973484,1396.0
88.072684753,1363.0
88.089396022,1357.0
88.106107291,1395.0
88.122818560,1344.0
88.139529829,1368.0
88.156241098,1284.0
88.172952367,1397.0
88.189663636,1351.0
88.206374905,1330.0
88.223086174,1362.0
88.239797443,1373.0
88.256508712,1338.0
88.273219981,1326.0
88.289931250,1402.0
88.306642519,1344.0
88.323353788,1372.0
88.340065057,1468.0
88.356776326,1368.0
88.373487595,1327.0
88.390198864,1361.0
88.406910133,1403.0
88.423621402,1358.0
88.440332671,1386.0
88.457043940,1343.0
88.473755209,1370.0
88.490466478,1389.0
88.507177747,1392.0
88.523889016,1375.0
88.540600284,1408.0
88.557311553,1348.0
88.574022822,1338.0
88.590734091,1380.0
88.607445360,1387.0
88.624156629,1356.0
88.640867898,1337.0
88.657579167,1389.0
88.674290436,1353.0
88.691001705,1356.0
88.707712974,1414.0
88.724424243,1346.0
88.741135512,1344.0
88.757846781,1397.0
88.774558050,1383.0
88.791269319,1377.0
88.807980588,1380.0
88.824691857,1399.0
88.841403126,1302.0
88.858114395,1393.0
88.874825664,1342.0
88.891536933,1423.0
88.908248202,1314.0
88.924959471,1283.0
88.941670740,1326.0
88.958382009,1349.0
88.975093278,1308.0
88.991804547,1344.0
89.008515816,1332.0
89.025227085,1407.0
89.041938354,1483.0
89.058649623,1356.0
89.075360892,1342.0
89.092072161,1366.0
89.108783430,1333.0
89.125494699,1368.0
89.142205968,1353.0
89.158917237,1405.0
89.175628506,1310.0
89.192339775,1382.0
89.209051044,1319.0
89.225762313,1370.0
89.242473582,1303.0
89.259184851,1253.0
89.275896120,1375.0
89.292607388,1359.0
89.309318657,1362.0
89.326029926,1290.0
89.342741195,1337.0
89.359452464,1392.0
89.376163733,1344.0
89.392875002,1328.0
89.409586271,1375.0
89.426297540,1331.0
89.443008809,1356.0
89.459720078,1389.0
89.476431347,1403.0
89.493142616,1332.0
89.509853885,1284.0
89.526565154,1384.0
89.543276423,1371.0
89.559987692,1379.0
89.576698961,1339.0
89.593410230,1381.0
89.610121499,1448.0
89.626832768,1389.0
89.643544037,1399.0
89.660255306,1337.0
89.676966575,1388.0
89.693677844,1322.0
89.710389113,1281.0
89.727100382,1354.0
89.743811651,1398.0
89.760522920,1314.0
89.777234189,1348.0
89.793945458,1405.0
89.810656727,1317.0
89.827367996,1365.0
89.844079265,1302.0
89.860790534,1362.0
89.877501803,1319.0
89.894213072,1439.0
89.910924341,1340.0
89.927635610,1463.0
89.944346879,1405.0
89.961058148,1409.0
89.977769417,1326.0
89.994480686,1406.0
90.011191955,1354.0
90.027903224,1356.0
90.044614493,1292.0
90.061325761,1342.0
90.078037030,1305.0
90.094748299,1420.0
90.111459568,1383.0
90.128170837,1353.0
90.144882106,1297.0
90.161593375,1388.0
90.178304644,1314.0
90.195015913,1387.0
90.211727182,1326.0
90.228438451,1398.0
90.245149720,1362.0
90.261860989,1338.0
90.278572258,1349.0
90.295283527,1291.0
90.311994796,1312.0
90.328706065,1422.0
90.345417334,1290.0
90.362128603,1336.0
90.378839872,1302.0
90.395551141,1317.0
90.412262410,1328.0
90.428973679,1348.0
90.445684948,1365.0
90.462396217,1379.0
90.479107486,1355.0
90.495818755,1352.0
90.512530024,1357.0
90.529241293,1361.0
90.545952562,1377.0
90.562663831,1365.0
90.579375100,1375.0
90.596086369,1311.0
90.612797638,1365.0
90.629508907,1389.0
90.646220176,1336.0
90.662931445,1355.0
90.679642714,1319.0
90.696353983,1359.0
90.713065252,1326.0
90.729776521,1409.0
90.746487790,1391.0
90.763199059,1381.0
90.779910328,1250.0
90.796621597,1368.0
90.813332865,1382.0
90.830044134,1322.0
90.846755403,1363.0
90.863466672,1373.0
90.880177941,1379.0
90.896889210,1290.0
90.913600479,1368.0
90.930311748,1425.0
90.947023017,1390.0
90.963734286,1306.0
90.980445555,1332.0
90.997156824,1337.0
91.013868093,1385.0
91.030579362,1424.0
91.047290631,1366.0
91.064001900,1350.0
91.080713169,1334.0
91.097424438,1334.0
91.114135707,1410.0
91.130846976,1400.0
91.147558245,1334.0
91.164269514,1442.0
91.180980783,1445.0
91.197692052,1360.0
91.214403321,1376.0
91.231114590,1375.0
91.247825859,1397.0
91.264537128,1331.0
91.281248397,1399.0
91.297959666,1397.0
91.314670935,1367.0
91.331382204,1403.0
91.348093473,1368.0
91.364804742,1440.0
91.381516011,1400.0
91.398227280,1426.0
91.414938549,1377.0
91.431649818,1427.0
91.448361087,1419.0
91.465072356,1450.0
91.481783625,1447.0
91.498494894,1519.0
91.515206163,1381.0
91.531917432,1457.0
91.548628701,1444.0
91.565339970,1416.0
91.582051238,1447.0
91.598762507,1344.0
91.615473776,1438.0
91.632185045,1400.0
91.648896314,1441.0
91.665607583,1491.0
91.682318852,1504.0
91.699030121,1474.0
91.715741390,1473.0
91.732452659,1405.0
91.749163928,1436.0
91.765875197,1499.0
91.782586466,1481.0
91.799297735,1478.0
91.816009004,1539.0
91.832720273,1435.0
91.849431542,1486.0
91.866142811,1496.0
91.882854080,1443.0
91.899565349,1522.0
91.916276618,1464.0
91.932987887,1543.0
91.949699156,1537.0
91.966410425,1501.0
91.983121694,1637.0
91.999832963,1592.0
92.016544232,1517.0
92.033255501,1615.0
92.049966770,1570.0
92.066678039,1600.0
92.083389308,1636.0
92.100100577,1607.0
92.116811846,1615.0
92.133523115,1663.0
92.150234384,1641.0
92.166945653,1635.0
92.183656922,1737.0
92.200368191,1721.0
92.217079460,1777.0
92.233790729,1777.0
92.250501998,1865.0
92.267213267,1756.0
92.283924536,1878.0
92.300635805,1738.0
92.317347074,1810.0
92.334058342,1846.0
92.350769611,1780.0
92.367480880,1815.0
92.384192149,1801.0
92.400903418,1850.0
92.417614687,1864.0
92.434325956,1836.0
92.451037225,1783.0
92.467748494,1695.0
92.484459763,1745.0
92.501171032,1758.0
92.517882301,1747.0
92.534593570,1708.0
92.551304839,1745.0
92.568016108,1625.0
92.584727377,1762.0
92.601438646,1686.0
92.618149915,1683.0
92.634861184,1620.0
92.651572453,1605.0
92.668283722,1551.0
92.684994991,1654.0
92.701706260,1640.0
92.718417529,1600.0
92.735128798,1554.0
92.751840067,1618.0
92.768551336,1511.0
92.785262605,1553.0
92.801973874,1546.0
92.818685143,1506.0
92.835396412,1409.0
92.852107681,1420.0
92.868818950,1508.0
92.885530219,1464.0
92.902241488,1471.0
92.918952757,1475.0
92.935664026,1477.0
92.952375295,1446.0
92.969086564,1423.0
92.985797833,1423.0
93.002509102,1397.0
93.019220371,1396.0
93.035931640,1418.0
93.052642909,1463.0
93.069354178,1401.0
93.086065447,1358.0
93.102776715,1379.0
93.119487984,1309.0
93.136199253,1330.0
93.152910522,1385.0
93.169621791,1393.0
93.186333060,1393.0
93.203044329,1391.0
93.219755598,1307.0
93.236466867,1338.0
93.253178136,1329.0
93.269889405,1310.0
93.286600674,1297.0
93.303311943,1279.0
93.320023212,1371.0
93.336734481,1342.0
93.353445750,1378.0
93.370157019,1365.0
93.386868288,1319.0
93.403579557,1305.0
93.420290826,1341.0
93.437002095,1339.0
93.453713364,1306.0
93.470424633,1352.0
93.487135902,1300.0
93.503847171,1323.0
93.520558440,1349.0
93.537269709,1304.0
93.553980978,1378.0
93.570692247,1309.0
93.587403516,1330.0
93.604114785,1269.0
93.620826054,1350.0
93.637537323,1327.0
93.654248592,1328.0
93.670959861,1295.0
93.687671130,1345.0
93.704382399,1351.0
93.721093668,1246.0
93.737804937,1322.0
93.754516206,1283.0
93.771227475,1277.0
93.787938744,1309.0
93.804650013,1283.0
93.821361282,1327.0
93.838072551,1302.0
93.854783819,1247.0
93.871495088,1361.0
93.888206357,1317.0
93.904917626,1342.0
93.921628895,1353.0
93.938340164,1383.0
93.955051433,1326.0
93.971762702,1314.0
93.988473971,1310.0
94.005185240,1237.0
94.021896509,1293.0
94.038607778,1271.0
94.055319047,1370.0
94.072030316,1361.0
94.088741585,1324.0
94.105452854,1282.0
94.122164123,1335.0
94.138875392,1266.0
94.155586661,1391.0
94.172297930,1390.0
94.189009199,1277.0
94.205720468,1318.0
94.222431737,1291.0
94.239143006,1336.0
94.255854275,1286.0
94.272565544,1329.0
94.289276813,1411.0
94.305988082,1373.0
94.322699351,1318.0
94.339410620,1339.0
94.356121889,1384.0
94.372833158,1314.0
94.389544427,1270.0
94.406255696,1253.0
94.422966965,1280.0
94.439678234,1323.0
94.456389503,1265.0
94.473100772,1310.0
94.489812041,1298.0
94.506523310,1303.0
94.523234579,1308.0
94.539945848,1302.0
94.556657117,1327.0
94.573368386,1312.0
94.590079655,1369.0
94.606790924,1343.0
94.623502192,1358.0
94.640213461,1345.0
94.656924730,1311.0
94.673635999,1271.0
94.690347268,1280.0
94.707058537,1258.0
94.723769806,1310.0
94.740481075,1232.0
94.757192344,1340.0
94.773903613,1361.0
94.790614882,1308.0
94.807326151,1309.0
94.824037420,1275.0
94.840748689,1274.0
94.857459958,1317.0
94.874171227,1345.0
94.890882496,1283.0
94.907593765,1257.0
94.924305034,1303.0
94.941016303,1278.0
94.957727572,1285.0
94.974438841,1300.0
94.991150110,1296.0
