[Measurement conditions]
Sample identification,
Comment - 1,"finito"
Comment - 2,"Configuration=MRI TC-Basic Stage, Owner=User-1, Creation date=26-10-2009 9:18:44"
Comment - 3,"Goniometer=PW3050/60 (Theta/Theta); Minimum step size 2Theta:0.001; Minimum step size Omega:0.001"
Comment - 4,"Sample stage=MRI TC-Basic (PtRh heat strip)"
Comment - 5,"Diffractometer system=XPERT-PRO"
Comment - 6,"Measurement program=FS-L, Owner=joana, Creation date=25-11-2014 17:28:08"
Anode material,Cu
K-Alpha1 wavelength,1.5405980
K-Alpha2 wavelength,1.5444260
Ratio K-Alpha2/K-Alpha1,0.500
Divergence slit,Fixed,0.76mm
Monochromator used,NO
Generator voltage, 45
Tube current, 40
File date and time,16-Dez-2017 05:59
Unit cell,
h k l, 0 0 0
Temperature [K],873
Scan axis,Gonio
Scan range,24.995999996,94.999505744
Scan step size,0.0167113
No. of points, 4189
Scan type,CONTINUOUS
Time per step,118.110
[Scan points]
Angle,Intensity
25.004355630,2294.0
25.021066899,2133.0
25.037778168,2187.0
25.054489437,2190.0
25.071200706,2195.0
25.087911975,2164.0
25.104623244,2217.0
25.121334513,2220.0
25.138045782,2160.0
25.154757051,2200.0
25.171468320,2243.0
25.188179589,2255.0
25.204890858,2258.0
25.221602127,2187.0
25.238313396,2180.0
25.255024665,2227.0
25.271735934,2091.0
25.288447203,2211.0
25.305158472,2220.0
25.321869741,2169.0
25.338581010,2230.0
25.355292279,2140.0
25.372003548,2067.0
25.388714816,2250.0
25.405426085,2201.0
25.422137354,2237.0
25.438848623,2309.0
25.455559892,2121.0
25.472271161,2209.0
25.488982430,2240.0
25.505693699,2174.0
25.522404968,2180.0
25.539116237,2159.0
25.555827506,2115.0
25.572538775,2150.0
25.589250044,2212.0
25.605961313,2246.0
25.622672582,2190.0
25.639383851,2146.0
25.656095120,2272.0
25.672806389,2085.0
25.689517658,2145.0
25.706228927,2208.0
25.722940196,2151.0
25.739651465,2215.0
25.756362734,2272.0
25.773074003,2182.0
25.789785272,2197.0
25.806496541,2187.0
25.823207810,2096.0
25.839919079,2176.0
25.856630348,2132.0
25.873341617,2192.0
25.890052886,2217.0
25.906764155,2203.0
25.923475424,2163.0
25.940186693,2191.0
25.956897962,2260.0
25.973609231,2175.0
25.990320500,2211.0
26.007031769,2216.0
26.023743038,2130.0
26.040454307,2104.0
26.057165576,2245.0
26.073876845,2156.0
26.090588114,2094.0
26.107299383,2114.0
26.124010652,2213.0
26.140721921,2273.0
26.157433189,2139.0
26.174144458,2184.0
26.190855727,2203.0
26.207566996,2142.0
26.224278265,2077.0
26.240989534,2225.0
26.257700803,2082.0
26.274412072,2132.0
26.291123341,2133.0
26.307834610,2149.0
26.324545879,2175.0
26.341257148,2124.0
26.357968417,2154.0
26.374679686,2209.0
26.391390955,2221.0
26.408102224,2129.0
26.424813493,2136.0
26.441524762,2125.0
26.458236031,2147.0
26.474947300,2172.0
26.491658569,2214.0
26.508369838,2220.0
26.525081107,2263.0
26.541792376,2065.0
26.558503645,2144.0
26.575214914,2269.0
26.591926183,2178.0
26.608637452,2131.0
26.625348721,2212.0
26.642059990,2222.0
26.658771259,2137.0
26.675482528,2144.0
26.692193797,2159.0
26.708905066,2074.0
26.725616335,2113.0
26.742327604,2205.0
26.759038873,2218.0
26.775750142,2211.0
26.792461411,2132.0
26.809172680,2192.0
26.825883949,2135.0
26.842595218,2133.0
26.859306487,2083.0
26.876017756,2153.0
26.892729025,2105.0
26.909440293,2144.0
26.926151562,2159.0
26.942862831,2181.0
26.959574100,2114.0
26.976285369,2084.0
26.992996638,2117.0
27.009707907,2185.0
27.026419176,2136.0
27.043130445,2049.0
27.059841714,2123.0
27.076552983,2116.0
27.093264252,2205.0
27.109975521,2179.0
27.126686790,2131.0
27.143398059,2240.0
27.160109328,2144.0
27.176820597,2189.0
27.193531866,2131.0
27.210243135,2133.0
27.226954404,2170.0
27.243665673,2252.0
27.260376942,2213.0
27.277088211,2115.0
27.293799480,2192.0
27.310510749,2219.0
27.327222018,2105.0
27.343933287,2047.0
27.360644556,2128.0
27.377355825,2168.0
27.394067094,2175.0
27.410778363,2198.0
27.427489632,2176.0
27.444200901,2123.0
27.460912170,2091.0
27.477623439,2206.0
27.494334708,2191.0
27.511045977,2231.0
27.527757246,2173.0
27.544468515,2159.0
27.561179784,2226.0
27.577891053,2147.0
27.594602322,2179.0
27.611313591,2158.0
27.628024860,2216.0
27.644736129,2163.0
27.661447398,2127.0
27.678158666,2155.0
27.694869935,2137.0
27.711581204,2195.0
27.728292473,2122.0
27.745003742,2134.0
27.761715011,2174.0
27.778426280,2187.0
27.795137549,2163.0
27.811848818,2173.0
27.828560087,2120.0
27.845271356,2137.0
27.861982625,2185.0
27.878693894,2169.0
27.895405163,2155.0
27.912116432,2130.0
27.928827701,2208.0
27.945538970,2176.0
27.962250239,2221.0
27.978961508,2186.0
27.995672777,2030.0
28.012384046,2158.0
28.029095315,2159.0
28.045806584,2119.0
28.062517853,2103.0
28.079229122,2204.0
28.095940391,2159.0
28.112651660,2152.0
28.129362929,2121.0
28.146074198,2221.0
28.162785467,2264.0
28.179496736,2123.0
28.196208005,2083.0
28.212919274,2225.0
28.229630543,2248.0
28.246341812,2181.0
28.263053081,2259.0
28.279764350,2959.0
28.296475619,3121.0
28.313186888,2371.0
28.329898157,2314.0
28.346609426,2490.0
28.363320695,2843.0
28.380031964,2456.0
28.396743233,2266.0
28.413454502,2135.0
28.430165770,2195.0
28.446877039,2132.0
28.463588308,2205.0
28.480299577,2203.0
28.497010846,2129.0
28.513722115,2204.0
28.530433384,2193.0
28.547144653,2251.0
28.563855922,2195.0
28.580567191,2200.0
28.597278460,2245.0
28.613989729,2138.0
28.630700998,2168.0
28.647412267,2176.0
28.664123536,2228.0
28.680834805,2182.0
28.697546074,2191.0
28.714257343,2230.0
28.730968612,2168.0
28.747679881,2213.0
28.764391150,2216.0
28.781102419,2159.0
28.797813688,2161.0
28.814524957,2280.0
28.831236226,2281.0
28.847947495,2157.0
28.864658764,2177.0
28.881370033,2195.0
28.898081302,2269.0
28.914792571,2198.0
28.931503840,2232.0
28.948215109,2280.0
28.964926378,2218.0
28.981637647,2224.0
28.998348916,2170.0
29.015060185,2177.0
29.031771454,2148.0
29.048482723,2197.0
29.065193992,2206.0
29.081905261,2204.0
29.098616530,2159.0
29.115327799,2211.0
29.132039068,2148.0
29.148750337,2195.0
29.165461606,2187.0
29.182172875,2156.0
29.198884143,2257.0
29.215595412,2168.0
29.232306681,2144.0
29.249017950,2127.0
29.265729219,2163.0
29.282440488,2143.0
29.299151757,2136.0
29.315863026,2155.0
29.332574295,2131.0
29.349285564,2111.0
29.365996833,2224.0
29.382708102,2136.0
29.399419371,2175.0
29.416130640,2139.0
29.432841909,2145.0
29.449553178,2145.0
29.466264447,2186.0
29.482975716,2142.0
29.499686985,2064.0
29.516398254,2183.0
29.533109523,2146.0
29.549820792,2182.0
29.566532061,2166.0
29.583243330,2075.0
29.599954599,2123.0
29.616665868,2177.0
29.633377137,2150.0
29.650088406,2210.0
29.666799675,2162.0
29.683510944,2256.0
29.700222213,2094.0
29.716933482,2092.0
29.733644751,2100.0
29.750356020,2193.0
29.767067289,2144.0
29.783778558,2268.0
29.800489827,2098.0
29.817201096,2110.0
29.833912365,2115.0
29.850623634,2150.0
29.867334903,2064.0
29.884046172,2204.0
29.900757441,2200.0
29.917468710,2223.0
29.934179979,2202.0
29.950891247,2320.0
29.967602516,2231.0
29.984313785,2174.0
30.001025054,2180.0
30.017736323,2249.0
30.034447592,2174.0
30.051158861,2285.0
30.067870130,2222.0
30.084581399,2095.0
30.101292668,2280.0
30.118003937,2241.0
30.134715206,2138.0
30.151426475,2138.0
30.168137744,2207.0
30.184849013,2170.0
30.201560282,2079.0
30.218271551,2332.0
30.234982820,2235.0
30.251694089,2270.0
30.268405358,2157.0
30.285116627,2247.0
30.301827896,2079.0
30.318539165,2163.0
30.335250434,2215.0
30.351961703,2152.0
30.368672972,2131.0
30.385384241,2155.0
30.402095510,2247.0
30.418806779,2073.0
30.435518048,2160.0
30.452229317,2147.0
30.468940586,2127.0
30.485651855,2134.0
30.502363124,2116.0
30.519074393,2078.0
30.535785662,2143.0
30.552496931,2174.0
30.569208200,2161.0
30.585919469,2210.0
30.602630738,2177.0
30.619342007,2149.0
30.636053276,2251.0
30.652764545,2124.0
30.669475814,2065.0
30.686187083,2107.0
30.702898352,2125.0
30.719609620,2105.0
30.736320889,2068.0
30.753032158,2264.0
30.769743427,2127.0
30.786454696,2189.0
30.803165965,2220.0
30.819877234,2108.0
30.836588503,2254.0
30.853299772,2132.0
30.870011041,2107.0
30.886722310,2081.0
30.903433579,2058.0
30.920144848,2195.0
30.936856117,2097.0
30.953567386,2187.0
30.970278655,2095.0
30.986989924,2130.0
31.003701193,2133.0
31.020412462,2071.0
31.037123731,2172.0
31.053835000,2129.0
31.070546269,2062.0
31.087257538,2121.0
31.103968807,2079.0
31.120680076,2197.0
31.137391345,2201.0
31.154102614,2074.0
31.170813883,1977.0
31.187525152,2122.0
31.204236421,2216.0
31.220947690,2086.0
31.237658959,2076.0
31.254370228,2169.0
31.271081497,2144.0
31.287792766,2126.0
31.304504035,2144.0
31.321215304,2124.0
31.337926573,2038.0
31.354637842,2160.0
31.371349111,2124.0
31.388060380,2026.0
31.404771649,2061.0
31.421482918,2154.0
31.438194187,2105.0
31.454905456,2163.0
31.471616724,2134.0
31.488327993,2233.0
31.505039262,2125.0
31.521750531,2067.0
31.538461800,2054.0
31.555173069,2124.0
31.571884338,2235.0
31.588595607,2116.0
31.605306876,2087.0
31.622018145,2140.0
31.638729414,2191.0
31.655440683,2138.0
31.672151952,2038.0
31.688863221,2196.0
31.705574490,2062.0
31.722285759,2150.0
31.738997028,2101.0
31.755708297,2096.0
31.772419566,2185.0
31.789130835,2153.0
31.805842104,2132.0
31.822553373,2112.0
31.839264642,2211.0
31.855975911,2080.0
31.872687180,2000.0
31.889398449,2155.0
31.906109718,2119.0
31.922820987,2089.0
31.939532256,2115.0
31.956243525,2064.0
31.972954794,2137.0
31.989666063,2041.0
32.006377332,2149.0
32.023088601,2165.0
32.039799870,2133.0
32.056511139,2118.0
32.073222408,2160.0
32.089933677,2175.0
32.106644946,2149.0
32.123356215,2101.0
32.140067484,2168.0
32.156778753,2110.0
32.173490022,2161.0
32.190201291,2124.0
32.206912560,2151.0
32.223623829,2091.0
32.240335097,2089.0
32.257046366,2081.0
32.273757635,2112.0
32.290468904,2076.0
32.307180173,2251.0
32.323891442,2098.0
32.340602711,2104.0
32.357313980,2135.0
32.374025249,2173.0
32.390736518,2167.0
32.407447787,2065.0
32.424159056,2026.0
32.440870325,2150.0
32.457581594,2118.0
32.474292863,2212.0
32.491004132,2163.0
32.507715401,2098.0
32.524426670,2097.0
32.541137939,2087.0
32.557849208,2097.0
32.574560477,2076.0
32.591271746,2151.0
32.607983015,2084.0
32.624694284,2152.0
32.641405553,2204.0
32.658116822,2212.0
32.674828091,2150.0
32.691539360,2106.0
32.708250629,2136.0
32.724961898,2131.0
32.741673167,2136.0
32.758384436,2174.0
32.775095705,2115.0
32.791806974,2098.0
32.808518243,2163.0
32.825229512,2128.0
32.841940781,2149.0
32.858652050,2137.0
32.875363319,2050.0
32.892074588,2071.0
32.908785857,2145.0
32.925497126,1978.0
32.942208395,2039.0
32.958919664,2153.0
32.975630933,2224.0
32.992342201,2074.0
33.009053470,2172.0
33.025764739,2142.0
33.042476008,2078.0
33.059187277,2118.0
33.075898546,2091.0
33.092609815,2098.0
33.109321084,2127.0
33.126032353,1988.0
33.142743622,2178.0
33.159454891,2164.0
33.176166160,2116.0
33.192877429,2054.0
33.209588698,2050.0
33.226299967,2210.0
33.243011236,2140.0
33.259722505,2138.0
33.276433774,2117.0
33.293145043,1999.0
33.309856312,2112.0
33.326567581,2150.0
33.343278850,2158.0
33.359990119,2046.0
33.376701388,2030.0
33.393412657,2127.0
33.410123926,2037.0
33.426835195,2030.0
33.443546464,2119.0
33.460257733,2152.0
33.476969002,2099.0
33.493680271,2051.0
33.510391540,2142.0
33.527102809,2124.0
33.543814078,2071.0
33.560525347,2122.0
33.577236616,2075.0
33.593947885,2102.0
33.610659154,2116.0
33.627370423,2098.0
33.644081692,2107.0
33.660792961,2010.0
33.677504230,2124.0
33.694215499,2160.0
33.710926768,2111.0
33.727638037,2101.0
33.744349306,2085.0
33.761060574,2024.0
33.777771843,2119.0
33.794483112,2086.0
33.811194381,2135.0
33.827905650,2132.0
33.844616919,2098.0
33.861328188,2157.0
33.878039457,2083.0
33.894750726,2056.0
33.911461995,2126.0
33.928173264,2080.0
33.944884533,2074.0
33.961595802,2097.0
33.978307071,2092.0
33.995018340,2179.0
34.011729609,2084.0
34.028440878,2120.0
34.045152147,2096.0
34.061863416,2092.0
34.078574685,2160.0
34.095285954,2073.0
34.111997223,2194.0
34.128708492,2102.0
34.145419761,2092.0
34.162131030,2104.0
34.178842299,2119.0
34.195553568,2084.0
34.212264837,2179.0
34.228976106,2083.0
34.245687375,2151.0
34.262398644,2065.0
34.279109913,2092.0
34.295821182,2209.0
34.312532451,2159.0
34.329243720,2070.0
34.345954989,2115.0
34.362666258,2081.0
34.379377527,2170.0
34.396088796,2075.0
34.412800065,2102.0
34.429511334,2090.0
34.446222603,2208.0
34.462933872,2207.0
34.479645141,2103.0
34.496356410,2162.0
34.513067679,2094.0
34.529778947,2059.0
34.546490216,2123.0
34.563201485,2106.0
34.579912754,2155.0
34.596624023,2120.0
34.613335292,2098.0
34.630046561,2176.0
34.646757830,2082.0
34.663469099,2140.0
34.680180368,2162.0
34.696891637,2046.0
34.713602906,2109.0
34.730314175,2194.0
34.747025444,2008.0
34.763736713,2178.0
34.780447982,2118.0
34.797159251,2032.0
34.813870520,2043.0
34.830581789,2200.0
34.847293058,2141.0
34.864004327,2103.0
34.880715596,2125.0
34.897426865,2139.0
34.914138134,2139.0
34.930849403,2102.0
34.947560672,2148.0
34.964271941,2062.0
34.980983210,2110.0
34.997694479,2123.0
35.014405748,2257.0
35.031117017,2135.0
35.047828286,2193.0
35.064539555,2190.0
35.081250824,2210.0
35.097962093,2170.0
35.114673362,2150.0
35.131384631,2123.0
35.148095900,2195.0
35.164807169,2256.0
35.181518438,2197.0
35.198229707,2217.0
35.214940976,2132.0
35.231652245,2159.0
35.248363514,2216.0
35.265074783,2156.0
35.281786051,2284.0
35.298497320,2297.0
35.315208589,2227.0
35.331919858,2348.0
35.348631127,2296.0
35.365342396,2372.0
35.382053665,2315.0
35.398764934,2391.0
35.415476203,2310.0
35.432187472,2417.0
35.448898741,2431.0
35.465610010,2313.0
35.482321279,2329.0
35.499032548,2316.0
35.515743817,2265.0
35.532455086,2401.0
35.549166355,2444.0
35.565877624,2284.0
35.582588893,2288.0
35.599300162,2347.0
35.616011431,2369.0
35.632722700,2371.0
35.649433969,2240.0
35.666145238,2312.0
35.682856507,2228.0
35.699567776,2372.0
35.716279045,2272.0
35.732990314,2355.0
35.749701583,2232.0
35.766412852,2211.0
35.783124121,2183.0
35.799835390,2165.0
35.816546659,2191.0
35.833257928,2272.0
35.849969197,2202.0
35.866680466,2290.0
35.883391735,2176.0
35.900103004,2284.0
35.916814273,2319.0
35.933525542,2176.0
35.950236811,2268.0
35.966948080,2284.0
35.983659349,2164.0
36.000370618,2138.0
36.017081887,2270.0
36.033793156,2214.0
36.050504424,2262.0
36.067215693,2173.0
36.083926962,2248.0
36.100638231,2205.0
36.117349500,2189.0
36.134060769,2201.0
36.150772038,2185.0
36.167483307,2194.0
36.184194576,2263.0
36.200905845,2234.0
36.217617114,2136.0
36.234328383,2202.0
36.251039652,2155.0
36.267750921,2258.0
36.284462190,2252.0
36.301173459,2243.0
36.317884728,2285.0
36.334595997,2234.0
36.351307266,2227.0
36.368018535,2292.0
36.384729804,2354.0
36.401441073,2288.0
36.418152342,2333.0
36.434863611,2238.0
36.451574880,2300.0
36.468286149,2346.0
36.484997418,2368.0
36.501708687,2431.0
36.518419956,2451.0
36.535131225,2392.0
36.551842494,2517.0
36.568553763,2565.0
36.585265032,2509.0
36.601976301,2622.0
36.618687570,2626.0
36.635398839,2668.0
36.652110108,2714.0
36.668821377,2888.0
36.685532646,2952.0
36.702243915,3032.0
36.718955184,3064.0
36.735666453,3092.0
36.752377722,3278.0
36.769088991,3431.0
36.785800260,3649.0
36.802511528,3850.0
36.819222797,3895.0
36.835934066,4218.0
36.852645335,4349.0
36.869356604,4653.0
36.886067873,4756.0
36.902779142,4885.0
36.919490411,5020.0
36.936201680,5322.0
36.952912949,5302.0
36.969624218,5522.0
36.986335487,5431.0
37.003046756,5631.0
37.019758025,5384.0
37.036469294,5292.0
37.053180563,5224.0
37.069891832,5016.0
37.086603101,5022.0
37.103314370,4816.0
37.120025639,4516.0
37.136736908,4395.0
37.153448177,4013.0
37.170159446,3952.0
37.186870715,3732.0
37.203581984,3505.0
37.220293253,3354.0
37.237004522,3353.0
37.253715791,3185.0
37.270427060,2940.0
37.287138329,2886.0
37.303849598,2777.0
37.320560867,2797.0
37.337272136,2747.0
37.353983405,2629.0
37.370694674,2461.0
37.387405943,2531.0
37.404117212,2467.0
37.420828481,2400.0
37.437539750,2468.0
37.454251019,2345.0
37.470962288,2302.0
37.487673557,2325.0
37.504384826,2259.0
37.521096095,2304.0
37.537807364,2201.0
37.554518633,2159.0
37.571229901,2240.0
37.587941170,2188.0
37.604652439,2275.0
37.621363708,2195.0
37.638074977,2161.0
37.654786246,2159.0
37.671497515,2144.0
37.688208784,2205.0
37.704920053,2218.0
37.721631322,2156.0
37.738342591,2123.0
37.755053860,2146.0
37.771765129,2154.0
37.788476398,2101.0
37.805187667,2160.0
37.821898936,2138.0
37.838610205,2104.0
37.855321474,2139.0
37.872032743,2191.0
37.888744012,2075.0
37.905455281,2088.0
37.922166550,2083.0
37.938877819,2167.0
37.955589088,2115.0
37.972300357,2084.0
37.989011626,2134.0
38.005722895,2134.0
38.022434164,2123.0
38.039145433,2084.0
38.055856702,1999.0
38.072567971,2046.0
38.089279240,2032.0
38.105990509,2031.0
38.122701778,2090.0
38.139413047,2078.0
38.156124316,2097.0
38.172835585,2031.0
38.189546854,2122.0
38.206258123,2046.0
38.222969392,2048.0
38.239680661,2119.0
38.256391930,2050.0
38.273103199,2063.0
38.289814468,2087.0
38.306525737,2133.0
38.323237005,1960.0
38.339948274,2031.0
38.356659543,2048.0
38.373370812,2101.0
38.390082081,2116.0
38.406793350,1988.0
38.423504619,2043.0
38.440215888,2060.0
38.456927157,1995.0
38.473638426,2010.0
38.490349695,2041.0
38.507060964,2012.0
38.523772233,1991.0
38.540483502,1977.0
38.557194771,2039.0
38.573906040,2054.0
38.590617309,2043.0
38.607328578,1990.0
38.624039847,2055.0
38.640751116,2085.0
38.657462385,2099.0
38.674173654,1978.0
38.690884923,2092.0
38.707596192,2063.0
38.724307461,2000.0
38.741018730,1917.0
38.757729999,2069.0
38.774441268,1967.0
38.791152537,1953.0
38.807863806,1996.0
38.824575075,1988.0
38.841286344,1987.0
38.857997613,2004.0
38.874708882,2114.0
38.891420151,1995.0
38.908131420,1964.0
38.924842689,2127.0
38.941553958,2051.0
38.958265227,2057.0
38.974976496,2049.0
38.991687765,2008.0
39.008399034,2070.0
39.025110303,2093.0
39.041821572,2024.0
39.058532841,2044.0
39.075244110,1993.0
39.091955378,1988.0
39.108666647,1973.0
39.125377916,1949.0
39.142089185,2048.0
39.158800454,1967.0
39.175511723,2053.0
39.192222992,2035.0
39.208934261,1938.0
39.225645530,2058.0
39.242356799,1906.0
39.259068068,1930.0
39.275779337,2064.0
39.292490606,1923.0
39.309201875,1993.0
39.325913144,2004.0
39.342624413,2037.0
39.359335682,2010.0
39.376046951,2012.0
39.392758220,1984.0
39.409469489,2037.0
39.426180758,2047.0
39.442892027,2031.0
39.459603296,2054.0
39.476314565,2103.0
39.493025834,2113.0
39.509737103,2101.0
39.526448372,2219.0
39.543159641,2171.0
39.559870910,2211.0
39.576582179,2270.0
39.593293448,2327.0
39.610004717,2550.0
39.626715986,2811.0
39.643427255,2711.0
39.660138524,2470.0
39.676849793,2197.0
39.693561062,2272.0
39.710272331,2244.0
39.726983600,2339.0
39.743694869,2257.0
39.760406138,2172.0
39.777117407,2063.0
39.793828676,2094.0
39.810539945,1971.0
39.827251214,2029.0
39.843962482,2017.0
39.860673751,2025.0
39.877385020,2045.0
39.894096289,2112.0
39.910807558,2007.0
39.927518827,2117.0
39.944230096,2035.0
39.960941365,2074.0
39.977652634,2068.0
39.994363903,1946.0
40.011075172,2031.0
40.027786441,2088.0
40.044497710,1984.0
40.061208979,1985.0
40.077920248,2001.0
40.094631517,1928.0
40.111342786,1943.0
40.128054055,1987.0
40.144765324,1989.0
40.161476593,1979.0
40.178187862,1958.0
40.194899131,1920.0
40.211610400,1909.0
40.228321669,1998.0
40.245032938,1937.0
40.261744207,2022.0
40.278455476,2051.0
40.295166745,1984.0
40.311878014,2024.0
40.328589283,2079.0
40.345300552,1974.0
40.362011821,1939.0
40.378723090,1965.0
40.395434359,2011.0
40.412145628,1959.0
40.428856897,1956.0
40.445568166,1970.0
40.462279435,2060.0
40.478990704,1978.0
40.495701973,1998.0
40.512413242,1968.0
40.529124511,1895.0
40.545835780,1980.0
40.562547049,1943.0
40.579258318,1874.0
40.595969587,1952.0
40.612680855,2010.0
40.629392124,1987.0
40.646103393,1877.0
40.662814662,1901.0
40.679525931,1973.0
40.696237200,1940.0
40.712948469,1900.0
40.729659738,2035.0
40.746371007,2016.0
40.763082276,1902.0
40.779793545,1973.0
40.796504814,1955.0
40.813216083,1924.0
40.829927352,1960.0
40.846638621,1988.0
40.863349890,1856.0
40.880061159,1955.0
40.896772428,2002.0
40.913483697,1923.0
40.930194966,2023.0
40.946906235,1907.0
40.963617504,2001.0
40.980328773,1923.0
40.997040042,1966.0
41.013751311,1999.0
41.030462580,1960.0
41.047173849,1964.0
41.063885118,1991.0
41.080596387,1912.0
41.097307656,1940.0
41.114018925,1998.0
41.130730194,1875.0
41.147441463,2014.0
41.164152732,1987.0
41.180864001,1932.0
41.197575270,1855.0
41.214286539,2034.0
41.230997808,1905.0
41.247709077,1920.0
41.264420346,2014.0
41.281131615,1918.0
41.297842884,2028.0
41.314554153,2018.0
41.331265422,1953.0
41.347976691,2001.0
41.364687959,1991.0
41.381399228,2007.0
41.398110497,1952.0
41.414821766,1992.0
41.431533035,2018.0
41.448244304,1966.0
41.464955573,1991.0
41.481666842,1962.0
41.498378111,1920.0
41.515089380,2052.0
41.531800649,1932.0
41.548511918,1991.0
41.565223187,1981.0
41.581934456,1997.0
41.598645725,2016.0
41.615356994,1962.0
41.632068263,2009.0
41.648779532,2011.0
41.665490801,1953.0
41.682202070,2029.0
41.698913339,1974.0
41.715624608,2077.0
41.732335877,2030.0
41.749047146,1968.0
41.765758415,2009.0
41.782469684,2094.0
41.799180953,2019.0
41.815892222,1990.0
41.832603491,1980.0
41.849314760,1989.0
41.866026029,1922.0
41.882737298,2005.0
41.899448567,1992.0
41.916159836,2106.0
41.932871105,1966.0
41.949582374,2113.0
41.966293643,2042.0
41.983004912,2104.0
41.999716181,2044.0
42.016427450,2087.0
42.033138719,2059.0
42.049849988,2016.0
42.066561257,2149.0
42.083272526,2127.0
42.099983795,2097.0
42.116695064,2126.0
42.133406332,2103.0
42.150117601,2042.0
42.166828870,2196.0
42.183540139,2058.0
42.200251408,2170.0
42.216962677,2077.0
42.233673946,2201.0
42.250385215,2062.0
42.267096484,2140.0
42.283807753,2182.0
42.300519022,2232.0
42.317230291,2199.0
42.333941560,2270.0
42.350652829,2310.0
42.367364098,2303.0
42.384075367,2192.0
42.400786636,2318.0
42.417497905,2310.0
42.434209174,2388.0
42.450920443,2323.0
42.467631712,2406.0
42.484342981,2396.0
42.501054250,2466.0
42.517765519,2567.0
42.534476788,2557.0
42.551188057,2620.0
42.567899326,2652.0
42.584610595,2662.0
42.601321864,2717.0
42.618033133,2879.0
42.634744402,2942.0
42.651455671,3200.0
42.668166940,3196.0
42.684878209,3342.0
42.701589478,3418.0
42.718300747,3669.0
42.735012016,3762.0
42.751723285,3882.0
42.768434554,4302.0
42.785145823,4369.0
42.801857092,4543.0
42.818568361,4958.0
42.835279630,5217.0
42.851990899,5501.0
42.868702168,5675.0
42.885413436,5926.0
42.902124705,6095.0
42.918835974,6077.0
42.935547243,6436.0
42.952258512,6692.0
42.968969781,6580.0
42.985681050,6445.0
43.002392319,6460.0
43.019103588,6304.0
43.035814857,6119.0
43.052526126,6042.0
43.069237395,5983.0
43.085948664,5594.0
43.102659933,5363.0
43.119371202,5350.0
43.136082471,4943.0
43.152793740,4788.0
43.169505009,4587.0
43.186216278,4151.0
43.202927547,4166.0
43.219638816,3957.0
43.236350085,3722.0
43.253061354,3547.0
43.269772623,3362.0
43.286483892,3261.0
43.303195161,3143.0
43.319906430,3044.0
43.336617699,2908.0
43.353328968,2835.0
43.370040237,2820.0
43.386751506,2671.0
43.403462775,2631.0
43.420174044,2546.0
43.436885313,2623.0
43.453596582,2522.0
43.470307851,2461.0
43.487019120,2424.0
43.503730389,2481.0
43.520441658,2383.0
43.537152927,2300.0
43.553864196,2309.0
43.570575465,2284.0
43.587286734,2201.0
43.603998003,2214.0
43.620709272,2247.0
43.637420541,2121.0
43.654131809,2283.0
43.670843078,2166.0
43.687554347,2147.0
43.704265616,2060.0
43.720976885,2155.0
43.737688154,2110.0
43.754399423,2112.0
43.771110692,2175.0
43.787821961,2092.0
43.804533230,2099.0
43.821244499,2048.0
43.837955768,2085.0
43.854667037,2025.0
43.871378306,2148.0
43.888089575,2040.0
43.904800844,2093.0
43.921512113,2017.0
43.938223382,2069.0
43.954934651,2013.0
43.971645920,1981.0
43.988357189,2038.0
44.005068458,2065.0
44.021779727,2116.0
44.038490996,2005.0
44.055202265,1968.0
44.071913534,1988.0
44.088624803,2018.0
44.105336072,1961.0
44.122047341,2047.0
44.138758610,2102.0
44.155469879,2018.0
44.172181148,2041.0
44.188892417,2011.0
44.205603686,2039.0
44.222314955,2022.0
44.239026224,2037.0
44.255737493,1972.0
44.272448762,1957.0
44.289160031,2043.0
44.305871300,1959.0
44.322582569,2021.0
44.339293838,2022.0
44.356005107,1958.0
44.372716376,1895.0
44.389427645,1979.0
44.406138913,2028.0
44.422850182,1957.0
44.439561451,2005.0
44.456272720,1839.0
44.472983989,1903.0
44.489695258,1943.0
44.506406527,1954.0
44.523117796,1983.0
44.539829065,1958.0
44.556540334,1909.0
44.573251603,1936.0
44.589962872,1989.0
44.606674141,1831.0
44.623385410,1934.0
44.640096679,1914.0
44.656807948,1945.0
44.673519217,1940.0
44.690230486,1969.0
44.706941755,1931.0
44.723653024,1894.0
44.740364293,1927.0
44.757075562,1895.0
44.773786831,1939.0
44.790498100,1889.0
44.807209369,1906.0
44.823920638,2009.0
44.840631907,1859.0
44.857343176,1978.0
44.874054445,1915.0
44.890765714,1907.0
44.907476983,1958.0
44.924188252,2007.0
44.940899521,2018.0
44.957610790,1877.0
44.974322059,1945.0
44.991033328,1916.0
45.007744597,2004.0
45.024455866,1921.0
45.041167135,1946.0
45.057878404,1894.0
45.074589673,1958.0
45.091300942,1977.0
45.108012211,2000.0
45.124723480,2018.0
45.141434749,2063.0
45.158146018,2005.0
45.174857286,2085.0
45.191568555,2025.0
45.208279824,2080.0
45.224991093,2014.0
45.241702362,2001.0
45.258413631,2059.0
45.275124900,1980.0
45.291836169,1938.0
45.308547438,2104.0
45.325258707,2048.0
45.341969976,1997.0
45.358681245,1946.0
45.375392514,1929.0
45.392103783,2016.0
45.408815052,1927.0
45.425526321,1917.0
45.442237590,1956.0
45.458948859,1996.0
45.475660128,1885.0
45.492371397,1987.0
45.509082666,1997.0
45.525793935,1888.0
45.542505204,1933.0
45.559216473,1989.0
45.575927742,2044.0
45.592639011,1997.0
45.609350280,1898.0
45.626061549,1906.0
45.642772818,1963.0
45.659484087,1923.0
45.676195356,1985.0
45.692906625,1908.0
45.709617894,2015.0
45.726329163,1984.0
45.743040432,1922.0
45.759751701,2011.0
45.776462970,2060.0
45.793174239,2025.0
45.809885508,1994.0
45.826596777,2151.0
45.843308046,2125.0
45.860019315,2206.0
45.876730584,2288.0
45.893441853,2417.0
45.910153122,2409.0
45.926864390,2659.0
45.943575659,2755.0
45.960286928,2827.0
45.976998197,2979.0
45.993709466,3279.0
46.010420735,3541.0
46.027132004,4097.0
46.043843273,5485.0
46.060554542,7336.0
46.077265811,7890.0
46.093977080,5873.0
46.110688349,3970.0
46.127399618,3308.0
46.144110887,3298.0
46.160822156,3650.0
46.177533425,4319.0
46.194244694,5025.0
46.210955963,4416.0
46.227667232,3368.0
46.244378501,2838.0
46.261089770,2677.0
46.277801039,2730.0
46.294512308,2793.0
46.311223577,2779.0
46.327934846,2845.0
46.344646115,2945.0
46.361357384,3151.0
46.378068653,3054.0
46.394779922,3303.0
46.411491191,3220.0
46.428202460,3125.0
46.444913729,3278.0
46.461624998,3070.0
46.478336267,3001.0
46.495047536,2877.0
46.511758805,2821.0
46.528470074,2763.0
46.545181343,2691.0
46.561892612,2611.0
46.578603881,2442.0
46.595315150,2485.0
46.612026419,2203.0
46.628737688,2080.0
46.645448957,2074.0
46.662160226,2071.0
46.678871495,2015.0
46.695582763,2042.0
46.712294032,2023.0
46.729005301,1973.0
46.745716570,1952.0
46.762427839,1878.0
46.779139108,1904.0
46.795850377,1864.0
46.812561646,1878.0
46.829272915,1884.0
46.845984184,1816.0
46.862695453,1920.0
46.879406722,1926.0
46.896117991,1814.0
46.912829260,1860.0
46.929540529,1887.0
46.946251798,1879.0
46.962963067,1890.0
46.979674336,1913.0
46.996385605,1842.0
47.013096874,1868.0
47.029808143,1897.0
47.046519412,1872.0
47.063230681,1842.0
47.079941950,1925.0
47.096653219,1825.0
47.113364488,1834.0
47.130075757,1811.0
47.146787026,1816.0
47.163498295,1920.0
47.180209564,1879.0
47.196920833,1824.0
47.213632102,1818.0
47.230343371,1823.0
47.247054640,1831.0
47.263765909,1863.0
47.280477178,1798.0
47.297188447,1872.0
47.313899716,1835.0
47.330610985,1853.0
47.347322254,1846.0
47.364033523,1817.0
47.380744792,1849.0
47.397456061,1791.0
47.414167330,1718.0
47.430878599,1835.0
47.447589867,1797.0
47.464301136,1903.0
47.481012405,1895.0
47.497723674,1887.0
47.514434943,1854.0
47.531146212,1879.0
47.547857481,1814.0
47.564568750,1854.0
47.581280019,1821.0
47.597991288,1847.0
47.614702557,1868.0
47.631413826,1863.0
47.648125095,1819.0
47.664836364,1838.0
47.681547633,1845.0
47.698258902,1811.0
47.714970171,1947.0
47.731681440,1807.0
47.748392709,1851.0
47.765103978,1837.0
47.781815247,1838.0
47.798526516,1825.0
47.815237785,1812.0
47.831949054,1888.0
47.848660323,1808.0
47.865371592,1863.0
47.882082861,1880.0
47.898794130,1861.0
47.915505399,1802.0
47.932216668,1794.0
47.948927937,1842.0
47.965639206,1810.0
47.982350475,1701.0
47.999061744,1772.0
48.015773013,1800.0
48.032484282,1829.0
48.049195551,1745.0
48.065906820,1824.0
48.082618089,1848.0
48.099329358,1914.0
48.116040627,1787.0
48.132751896,1900.0
48.149463165,1829.0
48.166174434,1740.0
48.182885703,1869.0
48.199596972,1827.0
48.216308240,1762.0
48.233019509,1814.0
48.249730778,1811.0
48.266442047,1856.0
48.283153316,1912.0
48.299864585,1830.0
48.316575854,1879.0
48.333287123,1850.0
48.349998392,1794.0
48.366709661,1866.0
48.383420930,1830.0
48.400132199,1779.0
48.416843468,1853.0
48.433554737,1851.0
48.450266006,1825.0
48.466977275,1784.0
48.483688544,1838.0
48.500399813,1733.0
48.517111082,1824.0
48.533822351,1825.0
48.550533620,1858.0
48.567244889,1806.0
48.583956158,1843.0
48.600667427,1787.0
48.617378696,1815.0
48.634089965,1847.0
48.650801234,1687.0
48.667512503,1809.0
48.684223772,1842.0
48.700935041,1779.0
48.717646310,1830.0
48.734357579,1763.0
48.751068848,1841.0
48.767780117,1741.0
48.784491386,1868.0
48.801202655,1768.0
48.817913924,1920.0
48.834625193,1774.0
48.851336462,1826.0
48.868047731,1789.0
48.884759000,1854.0
48.901470269,1771.0
48.918181538,1833.0
48.934892807,1793.0
48.951604076,1789.0
48.968315344,1830.0
48.985026613,1810.0
49.001737882,1801.0
49.018449151,1824.0
49.035160420,1734.0
49.051871689,1766.0
49.068582958,1847.0
49.085294227,1855.0
49.102005496,1864.0
49.118716765,1803.0
49.135428034,1910.0
49.152139303,1883.0
49.168850572,1825.0
49.185561841,1905.0
49.202273110,1827.0
49.218984379,1882.0
49.235695648,1879.0
49.252406917,1960.0
49.269118186,1946.0
49.285829455,1998.0
49.302540724,2016.0
49.319251993,2041.0
49.335963262,1986.0
49.352674531,1964.0
49.369385800,1917.0
49.386097069,1954.0
49.402808338,1967.0
49.419519607,1894.0
49.436230876,1854.0
49.452942145,1854.0
49.469653414,1883.0
49.486364683,1825.0
49.503075952,1780.0
49.519787221,1846.0
49.536498490,1852.0
49.553209759,1800.0
49.569921028,1845.0
49.586632297,1863.0
49.603343566,1908.0
49.620054835,1780.0
49.636766104,1763.0
49.653477373,1902.0
49.670188642,1750.0
49.686899911,1803.0
49.703611180,1799.0
49.720322449,1753.0
49.737033717,1869.0
49.753744986,1825.0
49.770456255,1756.0
49.787167524,1755.0
49.803878793,1823.0
49.820590062,1838.0
49.837301331,1825.0
49.854012600,1760.0
49.870723869,1850.0
49.887435138,1826.0
49.904146407,1800.0
49.920857676,1751.0
49.937568945,1821.0
49.954280214,1879.0
49.970991483,1838.0
49.987702752,1897.0
50.004414021,1830.0
50.021125290,1870.0
50.037836559,1892.0
50.054547828,1862.0
50.071259097,1802.0
50.087970366,1851.0
50.104681635,1919.0
50.121392904,1860.0
50.138104173,1899.0
50.154815442,1939.0
50.171526711,1905.0
50.188237980,2041.0
50.204949249,2078.0
50.221660518,2098.0
50.238371787,2114.0
50.255083056,2117.0
50.271794325,2214.0
50.288505594,2163.0
50.305216863,2082.0
50.321928132,2098.0
50.338639401,2172.0
50.355350670,2151.0
50.372061939,2042.0
50.388773208,2094.0
50.405484477,2150.0
50.422195746,1999.0
50.438907015,2046.0
50.455618284,1929.0
50.472329553,1901.0
50.489040821,1858.0
50.505752090,1891.0
50.522463359,1814.0
50.539174628,1862.0
50.555885897,1822.0
50.572597166,1815.0
50.589308435,1890.0
50.606019704,1766.0
50.622730973,1779.0
50.639442242,1818.0
50.656153511,1807.0
50.672864780,1781.0
50.689576049,1815.0
50.706287318,1790.0
50.722998587,1805.0
50.739709856,1796.0
50.756421125,1741.0
50.773132394,1818.0
50.789843663,1799.0
50.806554932,1884.0
50.823266201,1816.0
50.839977470,1739.0
50.856688739,1796.0
50.873400008,1719.0
50.890111277,1798.0
50.906822546,1811.0
50.923533815,1846.0
50.940245084,1784.0
50.956956353,1823.0
50.973667622,1828.0
50.990378891,1773.0
51.007090160,1692.0
51.023801429,1709.0
51.040512698,1741.0
51.057223967,1868.0
51.073935236,1787.0
51.090646505,1789.0
51.107357774,1822.0
51.124069043,1755.0
51.140780312,1719.0
51.157491581,1748.0
51.174202850,1745.0
51.190914119,1784.0
51.207625388,1701.0
51.224336657,1727.0
51.241047926,1788.0
51.257759194,1760.0
51.274470463,1796.0
51.291181732,1692.0
51.307893001,1796.0
51.324604270,1720.0
51.341315539,1649.0
51.358026808,1777.0
51.374738077,1797.0
51.391449346,1743.0
51.408160615,1769.0
51.424871884,1801.0
51.441583153,1825.0
51.458294422,1796.0
51.475005691,1747.0
51.491716960,1698.0
51.508428229,1742.0
51.525139498,1755.0
51.541850767,1761.0
51.558562036,1783.0
51.575273305,1728.0
51.591984574,1795.0
51.608695843,1770.0
51.625407112,1788.0
51.642118381,1757.0
51.658829650,1785.0
51.675540919,1774.0
51.692252188,1782.0
51.708963457,1801.0
51.725674726,1779.0
51.742385995,1767.0
51.759097264,1671.0
51.775808533,1747.0
51.792519802,1729.0
51.809231071,1800.0
51.825942340,1720.0
51.842653609,1824.0
51.859364878,1774.0
51.876076147,1713.0
51.892787416,1779.0
51.909498685,1742.0
51.926209954,1797.0
51.942921223,1778.0
51.959632492,1711.0
51.976343761,1788.0
51.993055030,1684.0
52.009766299,1761.0
52.026477567,1794.0
52.043188836,1868.0
52.059900105,1652.0
52.076611374,1691.0
52.093322643,1760.0
52.110033912,1854.0
52.126745181,1764.0
52.143456450,1730.0
52.160167719,1768.0
52.176878988,1781.0
52.193590257,1743.0
52.210301526,1763.0
52.227012795,1763.0
52.243724064,1818.0
52.260435333,1821.0
52.277146602,1682.0
52.293857871,1784.0
52.310569140,1705.0
52.327280409,1757.0
52.343991678,1832.0
52.360702947,1798.0
52.377414216,1728.0
52.394125485,1809.0
52.410836754,1794.0
52.427548023,1739.0
52.444259292,1756.0
52.460970561,1720.0
52.477681830,1821.0
52.494393099,1795.0
52.511104368,1739.0
52.527815637,1734.0
52.544526906,1743.0
52.561238175,1843.0
52.577949444,1712.0
52.594660713,1754.0
52.611371982,1796.0
52.628083251,1767.0
52.644794520,1780.0
52.661505789,1843.0
52.678217058,1803.0
52.694928327,1761.0
52.711639596,1689.0
52.728350865,1841.0
52.745062134,1760.0
52.761773403,1763.0
52.778484671,1740.0
52.795195940,1718.0
52.811907209,1772.0
52.828618478,1715.0
52.845329747,1796.0
52.862041016,1797.0
52.878752285,1689.0
52.895463554,1818.0
52.912174823,1651.0
52.928886092,1762.0
52.945597361,1676.0
52.962308630,1742.0
52.979019899,1785.0
52.995731168,1748.0
53.012442437,1741.0
53.029153706,1766.0
53.045864975,1749.0
53.062576244,1692.0
53.079287513,1767.0
53.095998782,1719.0
53.112710051,1815.0
53.129421320,1803.0
53.146132589,1834.0
53.162843858,1794.0
53.179555127,1779.0
53.196266396,1788.0
53.212977665,1811.0
53.229688934,1742.0
53.246400203,1730.0
53.263111472,1816.0
53.279822741,1785.0
53.296534010,1805.0
53.313245279,1703.0
53.329956548,1732.0
53.346667817,1794.0
53.363379086,1829.0
53.380090355,1784.0
53.396801624,1789.0
53.413512893,1799.0
53.430224162,1819.0
53.446935431,1776.0
53.463646700,1833.0
53.480357969,1810.0
53.497069238,1761.0
53.513780507,1749.0
53.530491776,1826.0
53.547203044,1734.0
53.563914313,1739.0
53.580625582,1784.0
53.597336851,1833.0
53.614048120,1712.0
53.630759389,1762.0
53.647470658,1768.0
53.664181927,1767.0
53.680893196,1788.0
53.697604465,1701.0
53.714315734,1754.0
53.731027003,1763.0
53.747738272,1694.0
53.764449541,1744.0
53.781160810,1768.0
53.797872079,1788.0
53.814583348,1717.0
53.831294617,1737.0
53.848005886,1794.0
53.864717155,1777.0
53.881428424,1678.0
53.898139693,1782.0
53.914850962,1714.0
53.931562231,1748.0
53.948273500,1779.0
53.964984769,1735.0
53.981696038,1754.0
53.998407307,1803.0
54.015118576,1688.0
54.031829845,1733.0
54.048541114,1729.0
54.065252383,1685.0
54.081963652,1733.0
54.098674921,1781.0
54.115386190,1667.0
54.132097459,1718.0
54.148808728,1755.0
54.165519997,1734.0
54.182231266,1705.0
54.198942535,1799.0
54.215653804,1753.0
54.232365073,1816.0
54.249076342,1764.0
54.265787611,1831.0
54.282498880,1754.0
54.299210148,1749.0
54.315921417,1711.0
54.332632686,1734.0
54.349343955,1815.0
54.366055224,1825.0
54.382766493,1783.0
54.399477762,1742.0
54.416189031,1770.0
54.432900300,1671.0
54.449611569,1731.0
54.466322838,1789.0
54.483034107,1740.0
54.499745376,1712.0
54.516456645,1744.0
54.533167914,1771.0
54.549879183,1731.0
54.566590452,1810.0
54.583301721,1789.0
54.600012990,1717.0
54.616724259,1806.0
54.633435528,1735.0
54.650146797,1760.0
54.666858066,1793.0
54.683569335,1806.0
54.700280604,1789.0
54.716991873,1758.0
54.733703142,1834.0
54.750414411,1853.0
54.767125680,1709.0
54.783836949,1750.0
54.800548218,1756.0
54.817259487,1597.0
54.833970756,1724.0
54.850682025,1727.0
54.867393294,1802.0
54.884104563,1762.0
54.900815832,1799.0
54.917527101,1674.0
54.934238370,1905.0
54.950949639,1735.0
54.967660908,1729.0
54.984372177,1747.0
55.001083446,1806.0
55.017794715,1822.0
55.034505984,1831.0
55.051217253,1790.0
55.067928521,1769.0
55.084639790,1833.0
55.101351059,1735.0
55.118062328,1822.0
55.134773597,1791.0
55.151484866,1746.0
55.168196135,1772.0
55.184907404,1778.0
55.201618673,1774.0
55.218329942,1741.0
55.235041211,1699.0
55.251752480,1777.0
55.268463749,1681.0
55.285175018,1850.0
55.301886287,1669.0
55.318597556,1778.0
55.335308825,1807.0
55.352020094,1726.0
55.368731363,1770.0
55.385442632,1716.0
55.402153901,1696.0
55.418865170,1735.0
55.435576439,1834.0
55.452287708,1705.0
55.468998977,1695.0
55.485710246,1720.0
55.502421515,1758.0
55.519132784,1725.0
55.535844053,1753.0
55.552555322,1748.0
55.569266591,1693.0
55.585977860,1754.0
55.602689129,1803.0
55.619400398,1748.0
55.636111667,1781.0
55.652822936,1668.0
55.669534205,1755.0
55.686245474,1777.0
55.702956743,1816.0
55.719668012,1739.0
55.736379281,1831.0
55.753090550,1729.0
55.769801819,1789.0
55.786513088,1759.0
55.803224357,1752.0
55.819935625,1692.0
55.836646894,1815.0
55.853358163,1795.0
55.870069432,1742.0
55.886780701,1832.0
55.903491970,1755.0
55.920203239,1731.0
55.936914508,1765.0
55.953625777,1757.0
55.970337046,1773.0
55.987048315,1753.0
56.003759584,1734.0
56.020470853,1809.0
56.037182122,1796.0
56.053893391,1774.0
56.070604660,1787.0
56.087315929,1809.0
56.104027198,1805.0
56.120738467,1835.0
56.137449736,1780.0
56.154161005,1772.0
56.170872274,1756.0
56.187583543,1820.0
56.204294812,1737.0
56.221006081,1779.0
56.237717350,1833.0
56.254428619,1769.0
56.271139888,1831.0
56.287851157,1761.0
56.304562426,1782.0
56.321273695,1806.0
56.337984964,1720.0
56.354696233,1772.0
56.371407502,1713.0
56.388118771,1729.0
56.404830040,1865.0
56.421541309,1860.0
56.438252578,1829.0
56.454963847,1795.0
56.471675116,1757.0
56.488386385,1754.0
56.505097654,1734.0
56.521808923,1800.0
56.538520192,1784.0
56.555231461,1781.0
56.571942730,1811.0
56.588653998,1804.0
56.605365267,1737.0
56.622076536,1828.0
56.638787805,1731.0
56.655499074,1789.0
56.672210343,1718.0
56.688921612,1775.0
56.705632881,1804.0
56.722344150,1865.0
56.739055419,1794.0
56.755766688,1700.0
56.772477957,1805.0
56.789189226,1791.0
56.805900495,1828.0
56.822611764,1839.0
56.839323033,1790.0
56.856034302,1788.0
56.872745571,1774.0
56.889456840,1800.0
56.906168109,1829.0
56.922879378,1759.0
56.939590647,1785.0
56.956301916,1825.0
56.973013185,1809.0
56.989724454,1857.0
57.006435723,1888.0
57.023146992,1807.0
57.039858261,1873.0
57.056569530,1758.0
57.073280799,1852.0
57.089992068,1842.0
57.106703337,1814.0
57.123414606,1899.0
57.140125875,1857.0
57.156837144,1807.0
57.173548413,1821.0
57.190259682,1856.0
57.206970951,1861.0
57.223682220,1831.0
57.240393489,1816.0
57.257104758,1780.0
57.273816027,1817.0
57.290527296,1780.0
57.307238565,1809.0
57.323949834,1754.0
57.340661102,1777.0
57.357372371,1792.0
57.374083640,1809.0
57.390794909,1790.0
57.407506178,1776.0
57.424217447,1787.0
57.440928716,1869.0
57.457639985,1789.0
57.474351254,1776.0
57.491062523,1798.0
57.507773792,1771.0
57.524485061,1799.0
57.541196330,1803.0
57.557907599,1747.0
57.574618868,1801.0
57.591330137,1829.0
57.608041406,1737.0
57.624752675,1782.0
57.641463944,1783.0
57.658175213,1763.0
57.674886482,1739.0
57.691597751,1761.0
57.708309020,1785.0
57.725020289,1785.0
57.741731558,1767.0
57.758442827,1884.0
57.775154096,1802.0
57.791865365,1798.0
57.808576634,1772.0
57.825287903,1760.0
57.841999172,1734.0
57.858710441,1759.0
57.875421710,1809.0
57.892132979,1832.0
57.908844248,1851.0
57.925555517,1898.0
57.942266786,1841.0
57.958978055,1764.0
57.975689324,1807.0
57.992400593,1826.0
58.009111862,1770.0
58.025823131,1786.0
58.042534400,1795.0
58.059245669,1782.0
58.075956938,1801.0
58.092668207,1781.0
58.109379475,1778.0
58.126090744,1814.0
58.142802013,1824.0
58.159513282,1782.0
58.176224551,1806.0
58.192935820,1713.0
58.209647089,1751.0
58.226358358,1798.0
58.243069627,1815.0
58.259780896,1867.0
58.276492165,1775.0
58.293203434,1860.0
58.309914703,1803.0
58.326625972,1798.0
58.343337241,1738.0
58.360048510,1807.0
58.376759779,1810.0
58.393471048,1811.0
58.410182317,1801.0
58.426893586,1806.0
58.443604855,1839.0
58.460316124,1768.0
58.477027393,1760.0
58.493738662,1764.0
58.510449931,1893.0
58.527161200,1849.0
58.543872469,1752.0
58.560583738,1834.0
58.577295007,1822.0
58.594006276,1936.0
58.610717545,1908.0
58.627428814,1850.0
58.644140083,1834.0
58.660851352,1796.0
58.677562621,1784.0
58.694273890,1823.0
58.710985159,1826.0
58.727696428,1815.0
58.744407697,1807.0
58.761118966,1818.0
58.777830235,1844.0
58.794541504,1806.0
58.811252773,1780.0
58.827964042,1703.0
58.844675311,1867.0
58.861386579,1857.0
58.878097848,1852.0
58.894809117,1766.0
58.911520386,1876.0
58.928231655,1752.0
58.944942924,1780.0
58.961654193,1874.0
58.978365462,1781.0
58.995076731,1785.0
59.011788000,1863.0
59.028499269,1784.0
59.045210538,1754.0
59.061921807,1784.0
59.078633076,1864.0
59.095344345,1861.0
59.112055614,1836.0
59.128766883,1902.0
59.145478152,1861.0
59.162189421,1747.0
59.178900690,1841.0
59.195611959,1815.0
59.212323228,1816.0
59.229034497,1908.0
59.245745766,1837.0
59.262457035,1739.0
59.279168304,1913.0
59.295879573,1824.0
59.312590842,1860.0
59.329302111,1872.0
59.346013380,1848.0
59.362724649,1871.0
59.379435918,1857.0
59.396147187,1752.0
59.412858456,1780.0
59.429569725,1857.0
59.446280994,1852.0
59.462992263,1904.0
59.479703532,1905.0
59.496414801,1826.0
59.513126070,1831.0
59.529837339,1834.0
59.546548608,1834.0
59.563259877,1799.0
59.579971146,1870.0
59.596682415,1913.0
59.613393684,1727.0
59.630104952,1889.0
59.646816221,1838.0
59.663527490,1873.0
59.680238759,1907.0
59.696950028,1785.0
59.713661297,1850.0
59.730372566,1880.0
59.747083835,1781.0
59.763795104,1808.0
59.780506373,1710.0
59.797217642,1895.0
59.813928911,1830.0
59.830640180,1798.0
59.847351449,1829.0
59.864062718,1849.0
59.880773987,1843.0
59.897485256,1831.0
59.914196525,1910.0
59.930907794,1895.0
59.947619063,1899.0
59.964330332,1906.0
59.981041601,1849.0
59.997752870,1833.0
60.014464139,1789.0
60.031175408,1905.0
60.047886677,1871.0
60.064597946,1886.0
60.081309215,1809.0
60.098020484,1826.0
60.114731753,1873.0
60.131443022,1817.0
60.148154291,1873.0
60.164865560,1875.0
60.181576829,1930.0
60.198288098,1931.0
60.214999367,1773.0
60.231710636,1885.0
60.248421905,1876.0
60.265133174,1917.0
60.281844443,1881.0
60.298555712,1867.0
60.315266981,1876.0
60.331978250,1913.0
60.348689519,1882.0
60.365400788,1826.0
60.382112056,1990.0
60.398823325,1775.0
60.415534594,1954.0
60.432245863,1928.0
60.448957132,1883.0
60.465668401,1888.0
60.482379670,1905.0
60.499090939,1848.0
60.515802208,1818.0
60.532513477,1925.0
60.549224746,1901.0
60.565936015,1911.0
60.582647284,1879.0
60.599358553,1731.0
60.616069822,1950.0
60.632781091,1973.0
60.649492360,1904.0
60.666203629,1884.0
60.682914898,1920.0
60.699626167,1905.0
60.716337436,1904.0
60.733048705,1849.0
60.749759974,1890.0
60.766471243,1889.0
60.783182512,1960.0
60.799893781,1942.0
60.816605050,2000.0
60.833316319,1995.0
60.850027588,1924.0
60.866738857,1904.0
60.883450126,1856.0
60.900161395,1975.0
60.916872664,1899.0
60.933583933,1919.0
60.950295202,1978.0
60.967006471,2046.0
60.983717740,1931.0
61.000429009,1842.0
61.017140278,1917.0
61.033851547,2008.0
61.050562816,1920.0
61.067274085,2000.0
61.083985354,2038.0
61.100696623,2034.0
61.117407892,1885.0
61.134119161,2009.0
61.150830429,1973.0
61.167541698,1997.0
61.184252967,2021.0
61.200964236,2020.0
61.217675505,1951.0
61.234386774,1917.0
61.251098043,1977.0
61.267809312,2003.0
61.284520581,1972.0
61.301231850,1996.0
61.317943119,1964.0
61.334654388,2048.0
61.351365657,2015.0
61.368076926,1992.0
61.384788195,1977.0
61.401499464,2026.0
61.418210733,2013.0
61.434922002,2054.0
61.451633271,2154.0
61.468344540,2005.0
61.485055809,1991.0
61.501767078,2068.0
61.518478347,2102.0
61.535189616,2037.0
61.551900885,2071.0
61.568612154,2075.0
61.585323423,2018.0
61.602034692,2068.0
61.618745961,2090.0
61.635457230,2013.0
61.652168499,2081.0
61.668879768,2076.0
61.685591037,2025.0
61.702302306,2086.0
61.719013575,2127.0
61.735724844,2126.0
61.752436113,2101.0
61.769147382,2106.0
61.785858651,2164.0
61.802569920,2171.0
61.819281189,2141.0
61.835992458,2198.0
61.852703727,2307.0
61.869414996,2274.0
61.886126265,2212.0
61.902837533,2236.0
61.919548802,2279.0
61.936260071,2360.0
61.952971340,2266.0
61.969682609,2398.0
61.986393878,2403.0
62.003105147,2451.0
62.019816416,2354.0
62.036527685,2403.0
62.053238954,2544.0
62.069950223,2542.0
62.086661492,2674.0
62.103372761,2664.0
62.120084030,2740.0
62.136795299,2770.0
62.153506568,2972.0
62.170217837,2870.0
62.186929106,3040.0
62.203640375,3021.0
62.220351644,3151.0
62.237062913,3242.0
62.253774182,3362.0
62.270485451,3366.0
62.287196720,3358.0
62.303907989,3503.0
62.320619258,3514.0
62.337330527,3515.0
62.354041796,3531.0
62.370753065,3560.0
62.387464334,3425.0
62.404175603,3612.0
62.420886872,3555.0
62.437598141,3471.0
62.454309410,3545.0
62.471020679,3435.0
62.487731948,3494.0
62.504443217,3343.0
62.521154486,3274.0
62.537865755,3413.0
62.554577024,3233.0
62.571288293,3084.0
62.587999562,3003.0
62.604710831,2973.0
62.621422100,3028.0
62.638133369,2882.0
62.654844638,2917.0
62.671555906,2879.0
62.688267175,2687.0
62.704978444,2704.0
62.721689713,2630.0
62.738400982,2556.0
62.755112251,2499.0
62.771823520,2481.0
62.788534789,2451.0
62.805246058,2389.0
62.821957327,2378.0
62.838668596,2406.0
62.855379865,2375.0
62.872091134,2495.0
62.888802403,2315.0
62.905513672,2314.0
62.922224941,2301.0
62.938936210,2283.0
62.955647479,2321.0
62.972358748,2381.0
62.989070017,2291.0
63.005781286,2284.0
63.022492555,2302.0
63.039203824,2196.0
63.055915093,2254.0
63.072626362,2315.0
63.089337631,2258.0
63.106048900,2216.0
63.122760169,2211.0
63.139471438,2140.0
63.156182707,2152.0
63.172893976,2170.0
63.189605245,2167.0
63.206316514,2239.0
63.223027783,2160.0
63.239739052,2166.0
63.256450321,2222.0
63.273161590,2159.0
63.289872859,2181.0
63.306584128,2160.0
63.323295397,2208.0
63.340006666,2176.0
63.356717935,2230.0
63.373429204,2158.0
63.390140473,2177.0
63.406851742,2192.0
63.423563010,2262.0
63.440274279,2165.0
63.456985548,2077.0
63.473696817,2243.0
63.490408086,2229.0
63.507119355,2149.0
63.523830624,2126.0
63.540541893,2187.0
63.557253162,2206.0
63.573964431,2136.0
63.590675700,2188.0
63.607386969,2088.0
63.624098238,2096.0
63.640809507,2282.0
63.657520776,2223.0
63.674232045,2077.0
63.690943314,2248.0
63.707654583,2133.0
63.724365852,2192.0
63.741077121,2109.0
63.757788390,2170.0
63.774499659,2134.0
63.791210928,2242.0
63.807922197,2213.0
63.824633466,2146.0
63.841344735,2177.0
63.858056004,2171.0
63.874767273,2181.0
63.891478542,2136.0
63.908189811,2127.0
63.924901080,2230.0
63.941612349,2226.0
63.958323618,2150.0
63.975034887,2223.0
63.991746156,2137.0
64.008457425,2093.0
64.025168694,2233.0
64.041879963,2155.0
64.058591232,2226.0
64.075302501,2258.0
64.092013770,2206.0
64.108725039,2290.0
64.125436308,2145.0
64.142147577,2200.0
64.158858846,2085.0
64.175570115,2283.0
64.192281383,2204.0
64.208992652,2198.0
64.225703921,2180.0
64.242415190,2178.0
64.259126459,2180.0
64.275837728,2163.0
64.292548997,2180.0
64.309260266,2124.0
64.325971535,2179.0
64.342682804,2170.0
64.359394073,2115.0
64.376105342,2091.0
64.392816611,2224.0
64.409527880,2210.0
64.426239149,2256.0
64.442950418,2154.0
64.459661687,2292.0
64.476372956,2231.0
64.493084225,2185.0
64.509795494,2332.0
64.526506763,2159.0
64.543218032,2190.0
64.559929301,2156.0
64.576640570,2199.0
64.593351839,2270.0
64.610063108,2321.0
64.626774377,2297.0
64.643485646,2232.0
64.660196915,2179.0
64.676908184,2200.0
64.693619453,2244.0
64.710330722,2250.0
64.727041991,2232.0
64.743753260,2196.0
64.760464529,2232.0
64.777175798,2279.0
64.793887067,2186.0
64.810598336,2190.0
64.827309605,2244.0
64.844020874,2225.0
64.860732143,2229.0
64.877443412,2289.0
64.894154681,2206.0
64.910865950,2251.0
64.927577219,2174.0
64.944288487,2335.0
64.960999756,2299.0
64.977711025,2337.0
64.994422294,2237.0
65.011133563,2351.0
65.027844832,2196.0
65.044556101,2224.0
65.061267370,2253.0
65.077978639,2383.0
65.094689908,2261.0
65.111401177,2268.0
65.128112446,2334.0
65.144823715,2216.0
65.161534984,2256.0
65.178246253,2306.0
65.194957522,2238.0
65.211668791,2251.0
65.228380060,2320.0
65.245091329,2353.0
65.261802598,2182.0
65.278513867,2226.0
65.295225136,2280.0
65.311936405,2330.0
65.328647674,2258.0
65.345358943,2278.0
65.362070212,2336.0
65.378781481,2269.0
65.395492750,2240.0
65.412204019,2227.0
65.428915288,2249.0
65.445626557,2238.0
65.462337826,2351.0
65.479049095,2318.0
65.495760364,2352.0
65.512471633,2236.0
65.529182902,2298.0
65.545894171,2179.0
65.562605440,2253.0
65.579316709,2255.0
65.596027978,2311.0
65.612739247,2298.0
65.629450516,2319.0
65.646161785,2319.0
65.662873054,2257.0
65.679584323,2296.0
65.696295592,2272.0
65.713006860,2247.0
65.729718129,2262.0
65.746429398,2329.0
65.763140667,2370.0
65.779851936,2285.0
65.796563205,2349.0
65.813274474,2276.0
65.829985743,2281.0
65.846697012,2420.0
65.863408281,2300.0
65.880119550,2370.0
65.896830819,2331.0
65.913542088,2350.0
65.930253357,2270.0
65.946964626,2222.0
65.963675895,2346.0
65.980387164,2350.0
65.997098433,2404.0
66.013809702,2403.0
66.030520971,2362.0
66.047232240,2372.0
66.063943509,2308.0
66.080654778,2298.0
66.097366047,2337.0
66.114077316,2328.0
66.130788585,2280.0
66.147499854,2363.0
66.164211123,2388.0
66.180922392,2373.0
66.197633661,2315.0
66.214344930,2405.0
66.231056199,2368.0
66.247767468,2281.0
66.264478737,2375.0
66.281190006,2341.0
66.297901275,2349.0
66.314612544,2422.0
66.331323813,2326.0
66.348035082,2348.0
66.364746351,2378.0
66.381457620,2383.0
66.398168889,2407.0
66.414880158,2350.0
66.431591427,2459.0
66.448302696,2365.0
66.465013964,2340.0
66.481725233,2299.0
66.498436502,2288.0
66.515147771,2368.0
66.531859040,2312.0
66.548570309,2391.0
66.565281578,2459.0
66.581992847,2364.0
66.598704116,2332.0
66.615415385,2344.0
66.632126654,2406.0
66.648837923,2282.0
66.665549192,2317.0
66.682260461,2302.0
66.698971730,2373.0
66.715682999,2250.0
66.732394268,2310.0
66.749105537,2322.0
66.765816806,2368.0
66.782528075,2356.0
66.799239344,2471.0
66.815950613,2342.0
66.832661882,2312.0
66.849373151,2330.0
66.866084420,2357.0
66.882795689,2366.0
66.899506958,2404.0
66.916218227,2346.0
66.932929496,2331.0
66.949640765,2365.0
66.966352034,2308.0
66.983063303,2478.0
66.999774572,2323.0
67.016485841,2375.0
67.033197110,2355.0
67.049908379,2444.0
67.066619648,2444.0
67.083330917,2455.0
67.100042186,2418.0
67.116753455,2455.0
67.133464724,2341.0
67.150175993,2294.0
67.166887262,2302.0
67.183598531,2364.0
67.200309800,2344.0
67.217021069,2331.0
67.233732337,2340.0
67.250443606,2383.0
67.267154875,2435.0
67.283866144,2365.0
67.300577413,2366.0
67.317288682,2425.0
67.333999951,2342.0
67.350711220,2358.0
67.367422489,2371.0
67.384133758,2483.0
67.400845027,2402.0
67.417556296,2356.0
67.434267565,2477.0
67.450978834,2394.0
67.467690103,2360.0
67.484401372,2275.0
67.501112641,2317.0
67.517823910,2360.0
67.534535179,2430.0
67.551246448,2229.0
67.567957717,2378.0
67.584668986,2392.0
67.601380255,2346.0
67.618091524,2375.0
67.634802793,2383.0
67.651514062,2354.0
67.668225331,2430.0
67.684936600,2338.0
67.701647869,2370.0
67.718359138,2408.0
67.735070407,2447.0
67.751781676,2426.0
67.768492945,2392.0
67.785204214,2385.0
67.801915483,2404.0
67.818626752,2405.0
67.835338021,2327.0
67.852049290,2320.0
67.868760559,2429.0
67.885471828,2426.0
67.902183097,2420.0
67.918894366,2478.0
67.935605635,2437.0
67.952316904,2363.0
67.969028173,2392.0
67.985739441,2344.0
68.002450710,2338.0
68.019161979,2312.0
68.035873248,2388.0
68.052584517,2370.0
68.069295786,2475.0
68.086007055,2244.0
68.102718324,2443.0
68.119429593,2355.0
68.136140862,2316.0
68.152852131,2345.0
68.169563400,2380.0
68.186274669,2356.0
68.202985938,2323.0
68.219697207,2289.0
68.236408476,2393.0
68.253119745,2338.0
68.269831014,2355.0
68.286542283,2353.0
68.303253552,2273.0
68.319964821,2341.0
68.336676090,2325.0
68.353387359,2410.0
68.370098628,2338.0
68.386809897,2391.0
68.403521166,2278.0
68.420232435,2355.0
68.436943704,2266.0
68.453654973,2342.0
68.470366242,2385.0
68.487077511,2372.0
68.503788780,2368.0
68.520500049,2321.0
68.537211318,2378.0
68.553922587,2452.0
68.570633856,2494.0
68.587345125,2411.0
68.604056394,2398.0
68.620767663,2413.0
68.637478932,2363.0
68.654190201,2345.0
68.670901470,2358.0
68.687612739,2444.0
68.704324008,2304.0
68.721035277,2283.0
68.737746546,2432.0
68.754457814,2372.0
68.771169083,2295.0
68.787880352,2304.0
68.804591621,2303.0
68.821302890,2382.0
68.838014159,2227.0
68.854725428,2470.0
68.871436697,2349.0
68.888147966,2235.0
68.904859235,2359.0
68.921570504,2403.0
68.938281773,2359.0
68.954993042,2345.0
68.971704311,2341.0
68.988415580,2391.0
69.005126849,2449.0
69.021838118,2440.0
69.038549387,2493.0
69.055260656,2374.0
69.071971925,2306.0
69.088683194,2383.0
69.105394463,2350.0
69.122105732,2314.0
69.138817001,2338.0
69.155528270,2407.0
69.172239539,2350.0
69.188950808,2359.0
69.205662077,2387.0
69.222373346,2375.0
69.239084615,2391.0
69.255795884,2432.0
69.272507153,2327.0
69.289218422,2324.0
69.305929691,2255.0
69.322640960,2396.0
69.339352229,2302.0
69.356063498,2329.0
69.372774767,2268.0
69.389486036,2314.0
69.406197305,2310.0
69.422908574,2444.0
69.439619843,2313.0
69.456331112,2316.0
69.473042381,2243.0
69.489753650,2367.0
69.506464919,2316.0
69.523176187,2258.0
69.539887456,2310.0
69.556598725,2341.0
69.573309994,2249.0
69.590021263,2188.0
69.606732532,2293.0
69.623443801,2282.0
69.640155070,2324.0
69.656866339,2346.0
69.673577608,2274.0
69.690288877,2293.0
69.707000146,2297.0
69.723711415,2311.0
69.740422684,2307.0
69.757133953,2336.0
69.773845222,2230.0
69.790556491,2347.0
69.807267760,2279.0
69.823979029,2266.0
69.840690298,2332.0
69.857401567,2287.0
69.874112836,2251.0
69.890824105,2194.0
69.907535374,2325.0
69.924246643,2357.0
69.940957912,2243.0
69.957669181,2273.0
69.974380450,2326.0
69.991091719,2301.0
70.007802988,2282.0
70.024514257,2278.0
70.041225526,2278.0
70.057936795,2233.0
70.074648064,2353.0
70.091359333,2424.0
70.108070602,2295.0
70.124781871,2292.0
70.141493140,2267.0
70.158204409,2327.0
70.174915678,2278.0
70.191626947,2249.0
70.208338216,2271.0
70.225049485,2087.0
70.241760754,2339.0
70.258472023,2295.0
70.275183291,2397.0
70.291894560,2318.0
70.308605829,2216.0
70.325317098,2333.0
70.342028367,2243.0
70.358739636,2196.0
70.375450905,2302.0
70.392162174,2346.0
70.408873443,2353.0
70.425584712,2188.0
70.442295981,2315.0
70.459007250,2243.0
70.475718519,2258.0
70.492429788,2269.0
70.509141057,2334.0
70.525852326,2307.0
70.542563595,2234.0
70.559274864,2254.0
70.575986133,2293.0
70.592697402,2311.0
70.609408671,2248.0
70.626119940,2264.0
70.642831209,2295.0
70.659542478,2239.0
70.676253747,2230.0
70.692965016,2248.0
70.709676285,2153.0
70.726387554,2326.0
70.743098823,2209.0
70.759810092,2264.0
70.776521361,2253.0
70.793232630,2233.0
70.809943899,2266.0
70.826655168,2237.0
70.843366437,2259.0
70.860077706,2175.0
70.876788975,2097.0
70.893500244,2239.0
70.910211513,2259.0
70.926922782,2227.0
70.943634051,2315.0
70.960345320,2285.0
70.977056589,2252.0
70.993767858,2231.0
71.010479127,2289.0
71.027190396,2222.0
71.043901664,2163.0
71.060612933,2216.0
71.077324202,2144.0
71.094035471,2146.0
71.110746740,2141.0
71.127458009,2198.0
71.144169278,2227.0
71.160880547,2244.0
71.177591816,2200.0
71.194303085,2323.0
71.211014354,2210.0
71.227725623,2155.0
71.244436892,2182.0
71.261148161,2243.0
71.277859430,2209.0
71.294570699,2235.0
71.311281968,2196.0
71.327993237,2258.0
71.344704506,2111.0
71.361415775,2197.0
71.378127044,2203.0
71.394838313,2255.0
71.411549582,2173.0
71.428260851,2170.0
71.444972120,2161.0
71.461683389,2199.0
71.478394658,2126.0
71.495105927,2153.0
71.511817196,2181.0
71.528528465,2252.0
71.545239734,2201.0
71.561951003,2233.0
71.578662272,2240.0
71.595373541,2055.0
71.612084810,2236.0
71.628796079,2271.0
71.645507348,2170.0
71.662218617,2160.0
71.678929886,2193.0
71.695641155,2125.0
71.712352424,2157.0
71.729063693,2185.0
71.745774962,2218.0
71.762486231,2110.0
71.779197500,2095.0
71.795908768,2141.0
71.812620037,2171.0
71.829331306,2153.0
71.846042575,2139.0
71.862753844,2148.0
71.879465113,2234.0
71.896176382,2139.0
71.912887651,2237.0
71.929598920,2218.0
71.946310189,2195.0
71.963021458,2167.0
71.979732727,2182.0
71.996443996,2021.0
72.013155265,2186.0
72.029866534,2155.0
72.046577803,2090.0
72.063289072,2068.0
72.080000341,2066.0
72.096711610,2126.0
72.113422879,2087.0
72.130134148,2123.0
72.146845417,2083.0
72.163556686,2082.0
72.180267955,2110.0
72.196979224,2120.0
72.213690493,2124.0
72.230401762,2109.0
72.247113031,2191.0
72.263824300,2088.0
72.280535569,2110.0
72.297246838,2126.0
72.313958107,2110.0
72.330669376,2089.0
72.347380645,2158.0
72.364091914,2079.0
72.380803183,2120.0
72.397514452,2121.0
72.414225721,2132.0
72.430936990,2086.0
72.447648259,2158.0
72.464359528,2109.0
72.481070797,2151.0
72.497782066,2100.0
72.514493335,2116.0
72.531204604,2204.0
72.547915873,2126.0
72.564627141,2147.0
72.581338410,2098.0
72.598049679,2134.0
72.614760948,2122.0
72.631472217,2064.0
72.648183486,2109.0
72.664894755,2155.0
72.681606024,2093.0
72.698317293,2093.0
72.715028562,2059.0
72.731739831,2106.0
72.748451100,2059.0
72.765162369,2076.0
72.781873638,2105.0
72.798584907,2159.0
72.815296176,2137.0
72.832007445,2171.0
72.848718714,2156.0
72.865429983,2105.0
72.882141252,2164.0
72.898852521,2122.0
72.915563790,2107.0
72.932275059,2103.0
72.948986328,2035.0
72.965697597,2130.0
72.982408866,2074.0
72.999120135,2115.0
73.015831404,2104.0
73.032542673,2084.0
73.049253942,2104.0
73.065965211,2098.0
73.082676480,2134.0
73.099387749,2146.0
73.116099018,2092.0
73.132810287,2059.0
73.149521556,2096.0
73.166232825,2038.0
73.182944094,2064.0
73.199655363,2140.0
73.216366632,2076.0
73.233077901,2106.0
73.249789170,2046.0
73.266500439,2092.0
73.283211708,2040.0
73.299922977,2003.0
73.316634245,1956.0
73.333345514,2094.0
73.350056783,2014.0
73.366768052,2067.0
73.383479321,2035.0
73.400190590,2047.0
73.416901859,2013.0
73.433613128,2068.0
73.450324397,2014.0
73.467035666,2054.0
73.483746935,2047.0
73.500458204,2072.0
73.517169473,2127.0
73.533880742,1986.0
73.550592011,1997.0
73.567303280,2077.0
73.584014549,2021.0
73.600725818,2088.0
73.617437087,2059.0
73.634148356,2042.0
73.650859625,2041.0
73.667570894,2047.0
73.684282163,2000.0
73.700993432,2076.0
73.717704701,2032.0
73.734415970,1975.0
73.751127239,2003.0
73.767838508,2045.0
73.784549777,2014.0
73.801261046,2045.0
73.817972315,2032.0
73.834683584,2086.0
73.851394853,1997.0
73.868106122,2019.0
73.884817391,2018.0
73.901528660,2081.0
73.918239929,1969.0
73.934951198,2027.0
73.951662467,2124.0
73.968373736,2030.0
73.985085005,1994.0
74.001796274,2038.0
74.018507543,2047.0
74.035218812,2025.0
74.051930081,2086.0
74.068641350,1996.0
74.085352618,2021.0
74.102063887,1989.0
74.118775156,2097.0
74.135486425,2067.0
74.152197694,2035.0
74.168908963,2051.0
74.185620232,2109.0
74.202331501,2120.0
74.219042770,2111.0
74.235754039,2108.0
74.252465308,1978.0
74.269176577,2062.0
74.285887846,2079.0
74.302599115,2137.0
74.319310384,2028.0
74.336021653,2018.0
74.352732922,2099.0
74.369444191,2166.0
74.386155460,2146.0
74.402866729,2011.0
74.419577998,2156.0
74.436289267,2089.0
74.453000536,2098.0
74.469711805,2179.0
74.486423074,2085.0
74.503134343,2169.0
74.519845612,2207.0
74.536556881,2192.0
74.553268150,2170.0
74.569979419,2151.0
74.586690688,2265.0
74.603401957,2306.0
74.620113226,2307.0
74.636824495,2259.0
74.653535764,2308.0
74.670247033,2378.0
74.686958302,2375.0
74.703669571,2397.0
74.720380840,2306.0
74.737092109,2307.0
74.753803378,2324.0
74.770514647,2372.0
74.787225916,2405.0
74.803937185,2299.0
74.820648454,2400.0
74.837359722,2401.0
74.854070991,2314.0
74.870782260,2252.0
74.887493529,2328.0
74.904204798,2359.0
74.920916067,2135.0
74.937627336,2316.0
74.954338605,2146.0
74.971049874,2185.0
74.987761143,2205.0
75.004472412,2147.0
75.021183681,2125.0
75.037894950,2123.0
75.054606219,2071.0
75.071317488,2228.0
75.088028757,2033.0
75.104740026,2038.0
75.121451295,2108.0
75.138162564,2035.0
75.154873833,2027.0
75.171585102,2013.0
75.188296371,2055.0
75.205007640,2021.0
75.221718909,2089.0
75.238430178,1958.0
75.255141447,2051.0
75.271852716,1966.0
75.288563985,1973.0
75.305275254,1943.0
75.321986523,1993.0
75.338697792,2005.0
75.355409061,1931.0
75.372120330,1905.0
75.388831599,1904.0
75.405542868,1964.0
75.422254137,1937.0
75.438965406,1941.0
75.455676675,1973.0
75.472387944,2000.0
75.489099213,1912.0
75.505810482,1933.0
75.522521751,1910.0
75.539233020,1915.0
75.555944289,1944.0
75.572655558,1825.0
75.589366827,1840.0
75.606078095,1932.0
75.622789364,1906.0
75.639500633,1949.0
75.656211902,1849.0
75.672923171,1893.0
75.689634440,1798.0
75.706345709,1851.0
75.723056978,1830.0
75.739768247,1914.0
75.756479516,1807.0
75.773190785,1853.0
75.789902054,1793.0
75.806613323,1852.0
75.823324592,1886.0
75.840035861,1855.0
75.856747130,1849.0
75.873458399,1960.0
75.890169668,1847.0
75.906880937,1851.0
75.923592206,1863.0
75.940303475,1885.0
75.957014744,1882.0
75.973726013,1821.0
75.990437282,1771.0
76.007148551,1823.0
76.023859820,1894.0
76.040571089,1830.0
76.057282358,1854.0
76.073993627,1861.0
76.090704896,1765.0
76.107416165,1801.0
76.124127434,1806.0
76.140838703,1855.0
76.157549972,1769.0
76.174261241,1861.0
76.190972510,1875.0
76.207683779,1884.0
76.224395048,1794.0
76.241106317,1883.0
76.257817586,1734.0
76.274528855,1821.0
76.291240124,1853.0
76.307951393,1792.0
76.324662662,1828.0
76.341373931,1841.0
76.358085199,1835.0
76.374796468,1756.0
76.391507737,1830.0
76.408219006,1828.0
76.424930275,1813.0
76.441641544,1781.0
76.458352813,1861.0
76.475064082,1717.0
76.491775351,1837.0
76.508486620,1819.0
76.525197889,1897.0
76.541909158,1737.0
76.558620427,1718.0
76.575331696,1767.0
76.592042965,1708.0
76.608754234,1827.0
76.625465503,1851.0
76.642176772,1761.0
76.658888041,1778.0
76.675599310,1777.0
76.692310579,1864.0
76.709021848,1800.0
76.725733117,1753.0
76.742444386,1772.0
76.759155655,1755.0
76.775866924,1738.0
76.792578193,1742.0
76.809289462,1809.0
76.826000731,1827.0
76.842712000,1710.0
76.859423269,1782.0
76.876134538,1778.0
76.892845807,1786.0
76.909557076,1783.0
76.926268345,1738.0
76.942979614,1841.0
76.959690883,1829.0
76.976402152,1781.0
76.993113421,1722.0
77.009824690,1688.0
77.026535959,1833.0
77.043247228,1762.0
77.059958497,1810.0
77.076669766,1811.0
77.093381035,1697.0
77.110092304,1859.0
77.126803572,1737.0
77.143514841,1693.0
77.160226110,1788.0
77.176937379,1760.0
77.193648648,1757.0
77.210359917,1733.0
77.227071186,1737.0
77.243782455,1851.0
77.260493724,1727.0
77.277204993,1726.0
77.293916262,1693.0
77.310627531,1705.0
77.327338800,1738.0
77.344050069,1785.0
77.360761338,1776.0
77.377472607,1734.0
77.394183876,1809.0
77.410895145,1779.0
77.427606414,1716.0
77.444317683,1735.0
77.461028952,1744.0
77.477740221,1770.0
77.494451490,1781.0
77.511162759,1714.0
77.527874028,1742.0
77.544585297,1723.0
77.561296566,1861.0
77.578007835,1757.0
77.594719104,1721.0
77.611430373,1778.0
77.628141642,1775.0
77.644852911,1676.0
77.661564180,1671.0
77.678275449,1762.0
77.694986718,1726.0
77.711697987,1763.0
77.728409256,1703.0
77.745120525,1690.0
77.761831794,1673.0
77.778543063,1689.0
77.795254332,1726.0
77.811965601,1652.0
77.828676870,1740.0
77.845388139,1706.0
77.862099408,1799.0
77.878810676,1741.0
77.895521945,1784.0
77.912233214,1719.0
77.928944483,1723.0
77.945655752,1670.0
77.962367021,1701.0
77.979078290,1751.0
77.995789559,1770.0
78.012500828,1770.0
78.029212097,1734.0
78.045923366,1724.0
78.062634635,1772.0
78.079345904,1781.0
78.096057173,1800.0
78.112768442,1745.0
78.129479711,1777.0
78.146190980,1794.0
78.162902249,1746.0
78.179613518,1809.0
78.196324787,1845.0
78.213036056,1782.0
78.229747325,1753.0
78.246458594,1744.0
78.263169863,1689.0
78.279881132,1806.0
78.296592401,1855.0
78.313303670,1752.0
78.330014939,1800.0
78.346726208,1807.0
78.363437477,1830.0
78.380148746,1843.0
78.396860015,1866.0
78.413571284,1821.0
78.430282553,1840.0
78.446993822,1847.0
78.463705091,1882.0
78.480416360,1826.0
78.497127629,1863.0
78.513838898,1905.0
78.530550167,1907.0
78.547261436,1974.0
78.563972705,1830.0
78.580683974,1989.0
78.597395243,1931.0
78.614106512,2016.0
78.630817781,2042.0
78.647529049,2038.0
78.664240318,2013.0
78.680951587,2002.0
78.697662856,1921.0
78.714374125,2000.0
78.731085394,1930.0
78.747796663,1993.0
78.764507932,1954.0
78.781219201,1936.0
78.797930470,1936.0
78.814641739,1995.0
78.831353008,1936.0
78.848064277,1832.0
78.864775546,1930.0
78.881486815,1924.0
78.898198084,1883.0
78.914909353,1875.0
78.931620622,1887.0
78.948331891,1827.0
78.965043160,1976.0
78.981754429,1851.0
78.998465698,1705.0
79.015176967,1753.0
79.031888236,1840.0
79.048599505,1780.0
79.065310774,1744.0
79.082022043,1717.0
79.098733312,1717.0
79.115444581,1827.0
79.132155850,1758.0
79.148867119,1772.0
79.165578388,1657.0
79.182289657,1788.0
79.199000926,1705.0
79.215712195,1694.0
79.232423464,1682.0
79.249134733,1698.0
79.265846002,1666.0
79.282557271,1736.0
79.299268540,1733.0
79.315979809,1705.0
79.332691078,1713.0
79.349402347,1664.0
79.366113616,1644.0
79.382824885,1598.0
79.399536153,1666.0
79.416247422,1656.0
79.432958691,1635.0
79.449669960,1629.0
79.466381229,1657.0
79.483092498,1549.0
79.499803767,1746.0
79.516515036,1622.0
79.533226305,1608.0
79.549937574,1640.0
79.566648843,1667.0
79.583360112,1678.0
79.600071381,1591.0
79.616782650,1659.0
79.633493919,1631.0
79.650205188,1688.0
79.666916457,1689.0
79.683627726,1577.0
79.700338995,1621.0
79.717050264,1618.0
79.733761533,1630.0
79.750472802,1618.0
79.767184071,1594.0
79.783895340,1609.0
79.800606609,1591.0
79.817317878,1687.0
79.834029147,1585.0
79.850740416,1630.0
79.867451685,1653.0
79.884162954,1569.0
79.900874223,1641.0
79.917585492,1592.0
79.934296761,1597.0
79.951008030,1617.0
79.967719299,1639.0
79.984430568,1581.0
80.001141837,1568.0
80.017853106,1646.0
80.034564375,1559.0
80.051275644,1619.0
80.067986913,1593.0
80.084698182,1587.0
80.101409451,1612.0
80.118120720,1599.0
80.134831989,1604.0
80.151543258,1707.0
80.168254526,1599.0
80.184965795,1501.0
80.201677064,1615.0
80.218388333,1628.0
80.235099602,1631.0
80.251810871,1632.0
80.268522140,1600.0
80.285233409,1614.0
80.301944678,1656.0
80.318655947,1573.0
80.335367216,1641.0
80.352078485,1627.0
80.368789754,1673.0
80.385501023,1560.0
80.402212292,1643.0
80.418923561,1566.0
80.435634830,1598.0
80.452346099,1628.0
80.469057368,1642.0
80.485768637,1527.0
80.502479906,1590.0
80.519191175,1532.0
80.535902444,1581.0
80.552613713,1565.0
80.569324982,1597.0
80.586036251,1615.0
80.602747520,1661.0
80.619458789,1641.0
80.636170058,1571.0
80.652881327,1616.0
80.669592596,1543.0
80.686303865,1648.0
80.703015134,1681.0
80.719726403,1605.0
80.736437672,1572.0
80.753148941,1573.0
80.769860210,1671.0
80.786571479,1597.0
80.803282748,1567.0
80.819994017,1591.0
80.836705286,1616.0
80.853416555,1574.0
80.870127824,1602.0
80.886839093,1555.0
80.903550362,1529.0
80.920261630,1537.0
80.936972899,1630.0
80.953684168,1640.0
80.970395437,1596.0
80.987106706,1567.0
81.003817975,1683.0
81.020529244,1609.0
81.037240513,1489.0
81.053951782,1528.0
81.070663051,1655.0
81.087374320,1562.0
81.104085589,1669.0
81.120796858,1545.0
81.137508127,1546.0
81.154219396,1581.0
81.170930665,1572.0
81.187641934,1571.0
81.204353203,1604.0
81.221064472,1520.0
81.237775741,1554.0
81.254487010,1557.0
81.271198279,1519.0
81.287909548,1585.0
81.304620817,1519.0
81.321332086,1581.0
81.338043355,1536.0
81.354754624,1508.0
81.371465893,1547.0
81.388177162,1412.0
81.404888431,1617.0
81.421599700,1531.0
81.438310969,1592.0
81.455022238,1552.0
81.471733507,1490.0
81.488444776,1513.0
81.505156045,1545.0
81.521867314,1604.0
81.538578583,1525.0
81.555289852,1551.0
81.572001121,1524.0
81.588712390,1602.0
81.605423659,1570.0
81.622134928,1510.0
81.638846197,1632.0
81.655557466,1566.0
81.672268735,1577.0
81.688980003,1523.0
81.705691272,1596.0
81.722402541,1498.0
81.739113810,1503.0
81.755825079,1634.0
81.772536348,1557.0
81.789247617,1552.0
81.805958886,1546.0
81.822670155,1493.0
81.839381424,1566.0
81.856092693,1586.0
81.872803962,1602.0
81.889515231,1560.0
81.906226500,1564.0
81.922937769,1504.0
81.939649038,1559.0
81.956360307,1607.0
81.973071576,1523.0
81.989782845,1595.0
82.006494114,1508.0
82.023205383,1586.0
82.039916652,1572.0
82.056627921,1612.0
82.073339190,1582.0
82.090050459,1609.0
82.106761728,1574.0
82.123472997,1557.0
82.140184266,1551.0
82.156895535,1571.0
82.173606804,1577.0
82.190318073,1443.0
82.207029342,1538.0
82.223740611,1587.0
82.240451880,1566.0
82.257163149,1462.0
82.273874418,1486.0
82.290585687,1523.0
82.307296956,1520.0
82.324008225,1547.0
82.340719494,1575.0
82.357430763,1525.0
82.374142032,1551.0
82.390853301,1566.0
82.407564570,1526.0
82.424275839,1557.0
82.440987107,1524.0
82.457698376,1548.0
82.474409645,1534.0
82.491120914,1517.0
82.507832183,1538.0
82.524543452,1569.0
82.541254721,1537.0
82.557965990,1462.0
82.574677259,1547.0
82.591388528,1463.0
82.608099797,1515.0
82.624811066,1520.0
82.641522335,1486.0
82.658233604,1472.0
82.674944873,1604.0
82.691656142,1503.0
82.708367411,1490.0
82.725078680,1548.0
82.741789949,1552.0
82.758501218,1545.0
82.775212487,1565.0
82.791923756,1614.0
82.808635025,1572.0
82.825346294,1514.0
82.842057563,1531.0
82.858768832,1524.0
82.875480101,1572.0
82.892191370,1526.0
82.908902639,1449.0
82.925613908,1475.0
82.942325177,1531.0
82.959036446,1559.0
82.975747715,1555.0
82.992458984,1513.0
83.009170253,1511.0
83.025881522,1532.0
83.042592791,1510.0
83.059304060,1540.0
83.076015329,1530.0
83.092726598,1491.0
83.109437867,1562.0
83.126149136,1449.0
83.142860405,1458.0
83.159571674,1543.0
83.176282943,1535.0
83.192994212,1431.0
83.209705480,1545.0
83.226416749,1468.0
83.243128018,1554.0
83.259839287,1528.0
83.276550556,1558.0
83.293261825,1510.0
83.309973094,1480.0
83.326684363,1494.0
83.343395632,1532.0
83.360106901,1467.0
83.376818170,1491.0
83.393529439,1555.0
83.410240708,1530.0
83.426951977,1474.0
83.443663246,1527.0
83.460374515,1480.0
83.477085784,1552.0
83.493797053,1491.0
83.510508322,1534.0
83.527219591,1487.0
83.543930860,1497.0
83.560642129,1481.0
83.577353398,1521.0
83.594064667,1447.0
83.610775936,1483.0
83.627487205,1578.0
83.644198474,1496.0
83.660909743,1468.0
83.677621012,1464.0
83.694332281,1504.0
83.711043550,1529.0
83.727754819,1473.0
83.744466088,1492.0
83.761177357,1525.0
83.777888626,1522.0
83.794599895,1581.0
83.811311164,1552.0
83.828022433,1584.0
83.844733702,1437.0
83.861444971,1540.0
83.878156240,1554.0
83.894867509,1457.0
83.911578778,1539.0
83.928290047,1478.0
83.945001316,1455.0
83.961712584,1489.0
83.978423853,1500.0
83.995135122,1423.0
84.011846391,1421.0
84.028557660,1530.0
84.045268929,1517.0
84.061980198,1552.0
84.078691467,1468.0
84.095402736,1490.0
84.112114005,1554.0
84.128825274,1405.0
84.145536543,1502.0
84.162247812,1495.0
84.178959081,1494.0
84.195670350,1458.0
84.212381619,1432.0
84.229092888,1467.0
84.245804157,1478.0
84.262515426,1527.0
84.279226695,1457.0
84.295937964,1499.0
84.312649233,1476.0
84.329360502,1517.0
84.346071771,1506.0
84.362783040,1413.0
84.379494309,1604.0
84.396205578,1428.0
84.412916847,1543.0
84.429628116,1383.0
84.446339385,1505.0
84.463050654,1458.0
84.479761923,1527.0
84.496473192,1504.0
84.513184461,1509.0
84.529895730,1468.0
84.546606999,1530.0
84.563318268,1459.0
84.580029537,1484.0
84.596740806,1478.0
84.613452075,1441.0
84.630163344,1507.0
84.646874613,1530.0
84.663585882,1490.0
84.680297151,1565.0
84.697008420,1457.0
84.713719689,1421.0
84.730430957,1477.0
84.747142226,1443.0
84.763853495,1457.0
84.780564764,1493.0
84.797276033,1502.0
84.813987302,1446.0
84.830698571,1511.0
84.847409840,1512.0
84.864121109,1484.0
84.880832378,1446.0
84.897543647,1504.0
84.914254916,1516.0
84.930966185,1433.0
84.947677454,1489.0
84.964388723,1517.0
84.981099992,1521.0
84.997811261,1449.0
85.014522530,1534.0
85.031233799,1412.0
85.047945068,1425.0
85.064656337,1448.0
85.081367606,1472.0
85.098078875,1475.0
85.114790144,1527.0
85.131501413,1461.0
85.148212682,1551.0
85.164923951,1494.0
85.181635220,1430.0
85.198346489,1489.0
85.215057758,1395.0
85.231769027,1420.0
85.248480296,1443.0
85.265191565,1469.0
85.281902834,1472.0
85.298614103,1455.0
85.315325372,1440.0
85.332036641,1430.0
85.348747910,1473.0
85.365459179,1483.0
85.382170448,1499.0
85.398881717,1448.0
85.415592986,1492.0
85.432304255,1446.0
85.449015524,1510.0
85.465726793,1509.0
85.482438061,1481.0
85.499149330,1531.0
85.515860599,1499.0
85.532571868,1483.0
85.549283137,1481.0
85.565994406,1402.0
85.582705675,1459.0
85.599416944,1465.0
85.616128213,1451.0
85.632839482,1483.0
85.649550751,1442.0
85.666262020,1490.0
85.682973289,1439.0
85.699684558,1488.0
85.716395827,1455.0
85.733107096,1495.0
85.749818365,1400.0
85.766529634,1472.0
85.783240903,1428.0
85.799952172,1427.0
85.816663441,1506.0
85.833374710,1498.0
85.850085979,1413.0
85.866797248,1441.0
85.883508517,1454.0
85.900219786,1454.0
85.916931055,1454.0
85.933642324,1467.0
85.950353593,1455.0
85.967064862,1451.0
85.983776131,1373.0
86.000487400,1467.0
86.017198669,1427.0
86.033909938,1419.0
86.050621207,1457.0
86.067332476,1429.0
86.084043745,1438.0
86.100755014,1482.0
86.117466283,1437.0
86.134177552,1497.0
86.150888821,1450.0
86.167600090,1495.0
86.184311359,1479.0
86.201022628,1391.0
86.217733897,1499.0
86.234445166,1387.0
86.251156434,1391.0
86.267867703,1480.0
86.284578972,1396.0
86.301290241,1484.0
86.318001510,1439.0
86.334712779,1438.0
86.351424048,1450.0
86.368135317,1477.0
86.384846586,1427.0
86.401557855,1409.0
86.418269124,1441.0
86.434980393,1403.0
86.451691662,1401.0
86.468402931,1410.0
86.485114200,1347.0
86.501825469,1394.0
86.518536738,1367.0
86.535248007,1395.0
86.551959276,1441.0
86.568670545,1430.0
86.585381814,1510.0
86.602093083,1335.0
86.618804352,1415.0
86.635515621,1476.0
86.652226890,1488.0
86.668938159,1455.0
86.685649428,1457.0
86.702360697,1434.0
86.719071966,1423.0
86.735783235,1462.0
86.752494504,1465.0
86.769205773,1471.0
86.785917042,1413.0
86.802628311,1471.0
86.819339580,1402.0
86.836050849,1435.0
86.852762118,1509.0
86.869473387,1461.0
86.886184656,1395.0
86.902895925,1397.0
86.919607194,1374.0
86.936318463,1454.0
86.953029732,1457.0
86.969741001,1450.0
86.986452270,1435.0
87.003163539,1381.0
87.019874807,1395.0
87.036586076,1517.0
87.053297345,1357.0
87.070008614,1460.0
87.086719883,1453.0
87.103431152,1392.0
87.120142421,1371.0
87.136853690,1446.0
87.153564959,1468.0
87.170276228,1377.0
87.186987497,1508.0
87.203698766,1445.0
87.220410035,1465.0
87.237121304,1462.0
87.253832573,1492.0
87.270543842,1441.0
87.287255111,1467.0
87.303966380,1413.0
87.320677649,1420.0
87.337388918,1330.0
87.354100187,1400.0
87.370811456,1429.0
87.387522725,1481.0
87.404233994,1388.0
87.420945263,1462.0
87.437656532,1427.0
87.454367801,1507.0
87.471079070,1429.0
87.487790339,1413.0
87.504501608,1401.0
87.521212877,1418.0
87.537924146,1429.0
87.554635415,1422.0
87.571346684,1436.0
87.588057953,1435.0
87.604769222,1416.0
87.621480491,1389.0
87.638191760,1424.0
87.654903029,1443.0
87.671614298,1375.0
87.688325567,1439.0
87.705036836,1378.0
87.721748105,1524.0
87.738459374,1501.0
87.755170643,1406.0
87.771881911,1375.0
87.788593180,1375.0
87.805304449,1439.0
87.822015718,1369.0
87.838726987,1399.0
87.855438256,1437.0
87.872149525,1456.0
87.888860794,1446.0
87.905572063,1413.0
87.922283332,1464.0
87.938994601,1338.0
87.955705870,1412.0
87.972417139,1413.0
87.989128408,1370.0
88.005839677,1377.0
88.022550946,1401.0
88.039262215,1359.0
88.055973484,1395.0
88.072684753,1469.0
88.089396022,1369.0
88.106107291,1441.0
88.122818560,1413.0
88.139529829,1413.0
88.156241098,1468.0
88.172952367,1398.0
88.189663636,1369.0
88.206374905,1378.0
88.223086174,1389.0
88.239797443,1487.0
88.256508712,1343.0
88.273219981,1327.0
88.289931250,1448.0
88.306642519,1489.0
88.323353788,1437.0
88.340065057,1441.0
88.356776326,1384.0
88.373487595,1466.0
88.390198864,1364.0
88.406910133,1421.0
88.423621402,1422.0
88.440332671,1419.0
88.457043940,1371.0
88.473755209,1350.0
88.490466478,1396.0
88.507177747,1463.0
88.523889016,1437.0
88.540600284,1422.0
88.557311553,1415.0
88.574022822,1391.0
88.590734091,1317.0
88.607445360,1444.0
88.624156629,1442.0
88.640867898,1384.0
88.657579167,1381.0
88.674290436,1377.0
88.691001705,1397.0
88.707712974,1398.0
88.724424243,1390.0
88.741135512,1457.0
88.757846781,1402.0
88.774558050,1433.0
88.791269319,1415.0
88.807980588,1400.0
88.824691857,1382.0
88.841403126,1388.0
88.858114395,1331.0
88.874825664,1382.0
88.891536933,1422.0
88.908248202,1437.0
88.924959471,1441.0
88.941670740,1416.0
88.958382009,1400.0
88.975093278,1397.0
88.991804547,1389.0
89.008515816,1334.0
89.025227085,1382.0
89.041938354,1374.0
89.058649623,1406.0
89.075360892,1453.0
89.092072161,1406.0
89.108783430,1407.0
89.125494699,1383.0
89.142205968,1409.0
89.158917237,1390.0
89.175628506,1308.0
89.192339775,1447.0
89.209051044,1405.0
89.225762313,1402.0
89.242473582,1474.0
89.259184851,1436.0
89.275896120,1409.0
89.292607388,1433.0
89.309318657,1426.0
89.326029926,1373.0
89.342741195,1348.0
89.359452464,1377.0
89.376163733,1373.0
89.392875002,1423.0
89.409586271,1429.0
89.426297540,1450.0
89.443008809,1399.0
89.459720078,1427.0
89.476431347,1382.0
89.493142616,1424.0
89.509853885,1421.0
89.526565154,1382.0
89.543276423,1352.0
89.559987692,1428.0
89.576698961,1407.0
89.593410230,1412.0
89.610121499,1377.0
89.626832768,1381.0
89.643544037,1401.0
89.660255306,1375.0
89.676966575,1412.0
89.693677844,1449.0
89.710389113,1434.0
89.727100382,1319.0
89.743811651,1466.0
89.760522920,1468.0
89.777234189,1441.0
89.793945458,1443.0
89.810656727,1408.0
89.827367996,1433.0
89.844079265,1420.0
89.860790534,1362.0
89.877501803,1385.0
89.894213072,1399.0
89.910924341,1376.0
89.927635610,1430.0
89.944346879,1496.0
89.961058148,1434.0
89.977769417,1351.0
89.994480686,1336.0
90.011191955,1374.0
90.027903224,1374.0
90.044614493,1305.0
90.061325761,1363.0
90.078037030,1439.0
90.094748299,1414.0
90.111459568,1413.0
90.128170837,1388.0
90.144882106,1334.0
90.161593375,1376.0
90.178304644,1385.0
90.195015913,1480.0
90.211727182,1419.0
90.228438451,1364.0
90.245149720,1431.0
90.261860989,1395.0
90.278572258,1395.0
90.295283527,1416.0
90.311994796,1401.0
90.328706065,1347.0
90.345417334,1452.0
90.362128603,1404.0
90.378839872,1409.0
90.395551141,1353.0
90.412262410,1345.0
90.428973679,1390.0
90.445684948,1383.0
90.462396217,1433.0
90.479107486,1427.0
90.495818755,1391.0
90.512530024,1400.0
90.529241293,1363.0
90.545952562,1355.0
90.562663831,1452.0
90.579375100,1396.0
90.596086369,1407.0
90.612797638,1452.0
90.629508907,1388.0
90.646220176,1395.0
90.662931445,1444.0
90.679642714,1434.0
90.696353983,1309.0
90.713065252,1416.0
90.729776521,1401.0
90.746487790,1410.0
90.763199059,1330.0
90.779910328,1374.0
90.796621597,1445.0
90.813332865,1379.0
90.830044134,1403.0
90.846755403,1432.0
90.863466672,1440.0
90.880177941,1419.0
90.896889210,1337.0
90.913600479,1345.0
90.930311748,1355.0
90.947023017,1345.0
90.963734286,1358.0
90.980445555,1321.0
90.997156824,1414.0
91.013868093,1373.0
91.030579362,1358.0
91.047290631,1314.0
91.064001900,1345.0
91.080713169,1281.0
91.097424438,1390.0
91.114135707,1381.0
91.130846976,1447.0
91.147558245,1365.0
91.164269514,1366.0
91.180980783,1442.0
91.197692052,1469.0
91.214403321,1363.0
91.231114590,1439.0
91.247825859,1395.0
91.264537128,1378.0
91.281248397,1317.0
91.297959666,1418.0
91.314670935,1325.0
91.331382204,1334.0
91.348093473,1354.0
91.364804742,1414.0
91.381516011,1343.0
91.398227280,1405.0
91.414938549,1390.0
91.431649818,1420.0
91.448361087,1395.0
91.465072356,1416.0
91.481783625,1353.0
91.498494894,1371.0
91.515206163,1449.0
91.531917432,1342.0
91.548628701,1427.0
91.565339970,1371.0
91.582051238,1322.0
91.598762507,1332.0
91.615473776,1346.0
91.632185045,1380.0
91.648896314,1443.0
91.665607583,1337.0
91.682318852,1330.0
91.699030121,1319.0
91.715741390,1324.0
91.732452659,1392.0
91.749163928,1370.0
91.765875197,1407.0
91.782586466,1365.0
91.799297735,1290.0
91.816009004,1369.0
91.832720273,1337.0
91.849431542,1415.0
91.866142811,1360.0
91.882854080,1405.0
91.899565349,1327.0
91.916276618,1348.0
91.932987887,1456.0
91.949699156,1380.0
91.966410425,1418.0
91.983121694,1409.0
91.999832963,1348.0
92.016544232,1399.0
92.033255501,1334.0
92.049966770,1370.0
92.066678039,1425.0
92.083389308,1353.0
92.100100577,1360.0
92.116811846,1335.0
92.133523115,1349.0
92.150234384,1392.0
92.166945653,1351.0
92.183656922,1348.0
92.200368191,1427.0
92.217079460,1397.0
92.233790729,1333.0
92.250501998,1437.0
92.267213267,1273.0
92.283924536,1363.0
92.300635805,1384.0
92.317347074,1379.0
92.334058342,1410.0
92.350769611,1366.0
92.367480880,1420.0
92.384192149,1286.0
92.400903418,1416.0
92.417614687,1344.0
92.434325956,1394.0
92.451037225,1379.0
92.467748494,1396.0
92.484459763,1333.0
92.501171032,1386.0
92.517882301,1375.0
92.534593570,1367.0
92.551304839,1378.0
92.568016108,1360.0
92.584727377,1343.0
92.601438646,1396.0
92.618149915,1357.0
92.634861184,1404.0
92.651572453,1341.0
92.668283722,1363.0
92.684994991,1308.0
92.701706260,1429.0
92.718417529,1398.0
92.735128798,1388.0
92.751840067,1329.0
92.768551336,1323.0
92.785262605,1336.0
92.801973874,1348.0
92.818685143,1326.0
92.835396412,1319.0
92.852107681,1268.0
92.868818950,1306.0
92.885530219,1383.0
92.902241488,1342.0
92.918952757,1295.0
92.935664026,1387.0
92.952375295,1392.0
92.969086564,1327.0
92.985797833,1413.0
93.002509102,1331.0
93.019220371,1391.0
93.035931640,1435.0
93.052642909,1344.0
93.069354178,1434.0
93.086065447,1410.0
93.102776715,1400.0
93.119487984,1289.0
93.136199253,1297.0
93.152910522,1338.0
93.169621791,1264.0
93.186333060,1388.0
93.203044329,1394.0
93.219755598,1304.0
93.236466867,1352.0
93.253178136,1464.0
93.269889405,1359.0
93.286600674,1412.0
93.303311943,1318.0
93.320023212,1390.0
93.336734481,1344.0
93.353445750,1396.0
93.370157019,1373.0
93.386868288,1379.0
93.403579557,1436.0
93.420290826,1363.0
93.437002095,1323.0
93.453713364,1294.0
93.470424633,1321.0
93.487135902,1399.0
93.503847171,1402.0
93.520558440,1368.0
93.537269709,1372.0
93.553980978,1386.0
93.570692247,1345.0
93.587403516,1407.0
93.604114785,1490.0
93.620826054,1357.0
93.637537323,1378.0
93.654248592,1436.0
93.670959861,1375.0
93.687671130,1340.0
93.704382399,1410.0
93.721093668,1378.0
93.737804937,1373.0
93.754516206,1402.0
93.771227475,1513.0
93.787938744,1398.0
93.804650013,1424.0
93.821361282,1370.0
93.838072551,1372.0
93.854783819,1378.0
93.871495088,1360.0
93.888206357,1444.0
93.904917626,1402.0
93.921628895,1446.0
93.938340164,1353.0
93.955051433,1445.0
93.971762702,1447.0
93.988473971,1357.0
94.005185240,1408.0
94.021896509,1456.0
94.038607778,1357.0
94.055319047,1451.0
94.072030316,1446.0
94.088741585,1423.0
94.105452854,1453.0
94.122164123,1468.0
94.138875392,1472.0
94.155586661,1407.0
94.172297930,1474.0
94.189009199,1396.0
94.205720468,1476.0
94.222431737,1411.0
94.239143006,1428.0
94.255854275,1505.0
94.272565544,1425.0
94.289276813,1402.0
94.305988082,1433.0
94.322699351,1484.0
94.339410620,1456.0
94.356121889,1459.0
94.372833158,1377.0
94.389544427,1374.0
94.406255696,1399.0
94.422966965,1378.0
94.439678234,1404.0
94.456389503,1414.0
94.473100772,1428.0
94.489812041,1411.0
94.506523310,1428.0
94.523234579,1393.0
94.539945848,1363.0
94.556657117,1412.0
94.573368386,1397.0
94.590079655,1333.0
94.606790924,1380.0
94.623502192,1411.0
94.640213461,1327.0
94.656924730,1392.0
94.673635999,1403.0
94.690347268,1409.0
94.707058537,1423.0
94.723769806,1330.0
94.740481075,1426.0
94.757192344,1339.0
94.773903613,1379.0
94.790614882,1329.0
94.807326151,1356.0
94.824037420,1337.0
94.840748689,1356.0
94.857459958,1399.0
94.874171227,1352.0
94.890882496,1347.0
94.907593765,1300.0
94.924305034,1337.0
94.941016303,1317.0
94.957727572,1392.0
94.974438841,1343.0
94.991150110,1374.0
