[Measurement conditions]
Sample identification,
Comment - 1,"finito"
Comment - 2,"Configuration=MRI TC-Basic Stage, Owner=User-1, Creation date=26-10-2009 9:18:44"
Comment - 3,"Goniometer=PW3050/60 (Theta/Theta); Minimum step size 2Theta:0.001; Minimum step size Omega:0.001"
Comment - 4,"Sample stage=MRI TC-Basic (PtRh heat strip)"
Comment - 5,"Diffractometer system=XPERT-PRO"
Comment - 6,"Measurement program=FS-L, Owner=joana, Creation date=25-11-2014 17:28:08"
Anode material,Cu
K-Alpha1 wavelength,1.5405980
K-Alpha2 wavelength,1.5444260
Ratio K-Alpha2/K-Alpha1,0.500
Divergence slit,Fixed,0.76mm
Monochromator used,NO
Generator voltage, 45
Tube current, 40
File date and time,16-Dez-2017 02:31
Unit cell,
h k l, 0 0 0
Temperature [K],723
Scan axis,Gonio
Scan range,24.995999996,94.999505744
Scan step size,0.0167113
No. of points, 4189
Scan type,CONTINUOUS
Time per step,118.110
[Scan points]
Angle,Intensity
25.004355630,2187.0
25.021066899,2125.0
25.037778168,2239.0
25.054489437,2146.0
25.071200706,2145.0
25.087911975,2219.0
25.104623244,2244.0
25.121334513,2167.0
25.138045782,2094.0
25.154757051,2206.0
25.171468320,2246.0
25.188179589,2248.0
25.204890858,2202.0
25.221602127,2260.0
25.238313396,2164.0
25.255024665,2110.0
25.271735934,2258.0
25.288447203,2135.0
25.305158472,2212.0
25.321869741,2220.0
25.338581010,2212.0
25.355292279,2237.0
25.372003548,2171.0
25.388714816,2218.0
25.405426085,2186.0
25.422137354,2146.0
25.438848623,2172.0
25.455559892,2287.0
25.472271161,2251.0
25.488982430,2282.0
25.505693699,2203.0
25.522404968,2196.0
25.539116237,2205.0
25.555827506,2115.0
25.572538775,2145.0
25.589250044,2194.0
25.605961313,2233.0
25.622672582,2227.0
25.639383851,2196.0
25.656095120,2199.0
25.672806389,2132.0
25.689517658,2153.0
25.706228927,2089.0
25.722940196,2191.0
25.739651465,2247.0
25.756362734,2149.0
25.773074003,2132.0
25.789785272,2188.0
25.806496541,2212.0
25.823207810,2285.0
25.839919079,2236.0
25.856630348,2138.0
25.873341617,2175.0
25.890052886,2201.0
25.906764155,2293.0
25.923475424,2183.0
25.940186693,2192.0
25.956897962,2214.0
25.973609231,2216.0
25.990320500,2163.0
26.007031769,2179.0
26.023743038,2184.0
26.040454307,2148.0
26.057165576,2189.0
26.073876845,2171.0
26.090588114,2168.0
26.107299383,2186.0
26.124010652,2141.0
26.140721921,2196.0
26.157433189,2272.0
26.174144458,2159.0
26.190855727,2093.0
26.207566996,2149.0
26.224278265,2107.0
26.240989534,2213.0
26.257700803,2201.0
26.274412072,2191.0
26.291123341,2227.0
26.307834610,2131.0
26.324545879,2109.0
26.341257148,2057.0
26.357968417,2174.0
26.374679686,2151.0
26.391390955,2149.0
26.408102224,2091.0
26.424813493,2141.0
26.441524762,2151.0
26.458236031,2284.0
26.474947300,2201.0
26.491658569,2181.0
26.508369838,2240.0
26.525081107,2093.0
26.541792376,2248.0
26.558503645,2183.0
26.575214914,2293.0
26.591926183,2227.0
26.608637452,2165.0
26.625348721,2135.0
26.642059990,2185.0
26.658771259,2208.0
26.675482528,2214.0
26.692193797,2067.0
26.708905066,2144.0
26.725616335,2196.0
26.742327604,2118.0
26.759038873,2206.0
26.775750142,2107.0
26.792461411,2199.0
26.809172680,2239.0
26.825883949,2181.0
26.842595218,2209.0
26.859306487,2181.0
26.876017756,2205.0
26.892729025,2140.0
26.909440293,2163.0
26.926151562,2186.0
26.942862831,2064.0
26.959574100,2119.0
26.976285369,2177.0
26.992996638,2201.0
27.009707907,2110.0
27.026419176,2136.0
27.043130445,2218.0
27.059841714,2129.0
27.076552983,2124.0
27.093264252,2164.0
27.109975521,2126.0
27.126686790,2190.0
27.143398059,2147.0
27.160109328,2252.0
27.176820597,2233.0
27.193531866,2191.0
27.210243135,2187.0
27.226954404,2251.0
27.243665673,2166.0
27.260376942,2205.0
27.277088211,2269.0
27.293799480,2179.0
27.310510749,2123.0
27.327222018,2176.0
27.343933287,2177.0
27.360644556,2216.0
27.377355825,2208.0
27.394067094,2238.0
27.410778363,2245.0
27.427489632,2237.0
27.444200901,2202.0
27.460912170,2202.0
27.477623439,2226.0
27.494334708,2124.0
27.511045977,2193.0
27.527757246,2330.0
27.544468515,2129.0
27.561179784,2227.0
27.577891053,2128.0
27.594602322,2159.0
27.611313591,2179.0
27.628024860,2130.0
27.644736129,2226.0
27.661447398,2135.0
27.678158666,2156.0
27.694869935,2082.0
27.711581204,2194.0
27.728292473,2191.0
27.745003742,2187.0
27.761715011,2109.0
27.778426280,2087.0
27.795137549,2167.0
27.811848818,2193.0
27.828560087,2107.0
27.845271356,2205.0
27.861982625,2134.0
27.878693894,2048.0
27.895405163,2188.0
27.912116432,2143.0
27.928827701,2164.0
27.945538970,2224.0
27.962250239,2091.0
27.978961508,2095.0
27.995672777,2181.0
28.012384046,2147.0
28.029095315,2054.0
28.045806584,2081.0
28.062517853,2156.0
28.079229122,2241.0
28.095940391,2175.0
28.112651660,2137.0
28.129362929,2102.0
28.146074198,2184.0
28.162785467,2142.0
28.179496736,2226.0
28.196208005,2176.0
28.212919274,2151.0
28.229630543,2130.0
28.246341812,2212.0
28.263053081,2392.0
28.279764350,2992.0
28.296475619,3256.0
28.313186888,2469.0
28.329898157,2329.0
28.346609426,2546.0
28.363320695,2674.0
28.380031964,2567.0
28.396743233,2249.0
28.413454502,2325.0
28.430165770,2289.0
28.446877039,2297.0
28.463588308,2303.0
28.480299577,2300.0
28.497010846,2361.0
28.513722115,2319.0
28.530433384,2263.0
28.547144653,2256.0
28.563855922,2417.0
28.580567191,2319.0
28.597278460,2193.0
28.613989729,2234.0
28.630700998,2283.0
28.647412267,2320.0
28.664123536,2209.0
28.680834805,2220.0
28.697546074,2198.0
28.714257343,2158.0
28.730968612,2269.0
28.747679881,2212.0
28.764391150,2288.0
28.781102419,2220.0
28.797813688,2214.0
28.814524957,2174.0
28.831236226,2239.0
28.847947495,2219.0
28.864658764,2217.0
28.881370033,2165.0
28.898081302,2159.0
28.914792571,2164.0
28.931503840,2194.0
28.948215109,2199.0
28.964926378,2181.0
28.981637647,2178.0
28.998348916,2144.0
29.015060185,2191.0
29.031771454,2203.0
29.048482723,2259.0
29.065193992,2212.0
29.081905261,2196.0
29.098616530,2172.0
29.115327799,2126.0
29.132039068,2175.0
29.148750337,2114.0
29.165461606,2164.0
29.182172875,2117.0
29.198884143,2146.0
29.215595412,2174.0
29.232306681,2151.0
29.249017950,2185.0
29.265729219,2158.0
29.282440488,2160.0
29.299151757,2228.0
29.315863026,2090.0
29.332574295,2161.0
29.349285564,2186.0
29.365996833,2232.0
29.382708102,2112.0
29.399419371,2168.0
29.416130640,2125.0
29.432841909,2188.0
29.449553178,2223.0
29.466264447,2142.0
29.482975716,2121.0
29.499686985,2109.0
29.516398254,2141.0
29.533109523,2202.0
29.549820792,2142.0
29.566532061,2154.0
29.583243330,2044.0
29.599954599,2147.0
29.616665868,2142.0
29.633377137,2112.0
29.650088406,2154.0
29.666799675,2102.0
29.683510944,2201.0
29.700222213,2171.0
29.716933482,2095.0
29.733644751,2052.0
29.750356020,2073.0
29.767067289,2176.0
29.783778558,2221.0
29.800489827,2163.0
29.817201096,2101.0
29.833912365,2144.0
29.850623634,2098.0
29.867334903,2198.0
29.884046172,2090.0
29.900757441,2116.0
29.917468710,2129.0
29.934179979,2114.0
29.950891247,2130.0
29.967602516,2196.0
29.984313785,2090.0
30.001025054,2121.0
30.017736323,2270.0
30.034447592,2108.0
30.051158861,2120.0
30.067870130,2133.0
30.084581399,2190.0
30.101292668,2136.0
30.118003937,2135.0
30.134715206,2151.0
30.151426475,2184.0
30.168137744,2113.0
30.184849013,2130.0
30.201560282,2278.0
30.218271551,2089.0
30.234982820,2173.0
30.251694089,2078.0
30.268405358,2160.0
30.285116627,2164.0
30.301827896,2226.0
30.318539165,2178.0
30.335250434,2063.0
30.351961703,2137.0
30.368672972,2092.0
30.385384241,2227.0
30.402095510,2098.0
30.418806779,2213.0
30.435518048,2145.0
30.452229317,2108.0
30.468940586,2146.0
30.485651855,2117.0
30.502363124,2130.0
30.519074393,2167.0
30.535785662,2111.0
30.552496931,2119.0
30.569208200,2125.0
30.585919469,2181.0
30.602630738,2146.0
30.619342007,2047.0
30.636053276,2053.0
30.652764545,2138.0
30.669475814,2094.0
30.686187083,2127.0
30.702898352,2068.0
30.719609620,2209.0
30.736320889,2124.0
30.753032158,2200.0
30.769743427,2164.0
30.786454696,2073.0
30.803165965,2137.0
30.819877234,2055.0
30.836588503,2099.0
30.853299772,2147.0
30.870011041,2164.0
30.886722310,2179.0
30.903433579,2095.0
30.920144848,2249.0
30.936856117,2100.0
30.953567386,2168.0
30.970278655,2157.0
30.986989924,2094.0
31.003701193,2157.0
31.020412462,2081.0
31.037123731,2118.0
31.053835000,2177.0
31.070546269,2177.0
31.087257538,2185.0
31.103968807,2139.0
31.120680076,2100.0
31.137391345,2190.0
31.154102614,2103.0
31.170813883,2084.0
31.187525152,2057.0
31.204236421,2091.0
31.220947690,2130.0
31.237658959,2122.0
31.254370228,2101.0
31.271081497,2067.0
31.287792766,2124.0
31.304504035,2127.0
31.321215304,2093.0
31.337926573,2179.0
31.354637842,2107.0
31.371349111,2193.0
31.388060380,2097.0
31.404771649,2097.0
31.421482918,2140.0
31.438194187,2023.0
31.454905456,2072.0
31.471616724,2146.0
31.488327993,2158.0
31.505039262,2076.0
31.521750531,2123.0
31.538461800,2075.0
31.555173069,2069.0
31.571884338,2103.0
31.588595607,2161.0
31.605306876,2100.0
31.622018145,2066.0
31.638729414,2096.0
31.655440683,2129.0
31.672151952,2233.0
31.688863221,2103.0
31.705574490,2123.0
31.722285759,2091.0
31.738997028,2173.0
31.755708297,2143.0
31.772419566,2149.0
31.789130835,2086.0
31.805842104,2153.0
31.822553373,2126.0
31.839264642,2066.0
31.855975911,2098.0
31.872687180,2059.0
31.889398449,2150.0
31.906109718,2103.0
31.922820987,2031.0
31.939532256,2161.0
31.956243525,2179.0
31.972954794,2156.0
31.989666063,2090.0
32.006377332,2062.0
32.023088601,2197.0
32.039799870,2059.0
32.056511139,2123.0
32.073222408,2122.0
32.089933677,2143.0
32.106644946,2076.0
32.123356215,2069.0
32.140067484,2121.0
32.156778753,2265.0
32.173490022,2071.0
32.190201291,2121.0
32.206912560,2090.0
32.223623829,2029.0
32.240335097,2206.0
32.257046366,2147.0
32.273757635,2136.0
32.290468904,2201.0
32.307180173,2121.0
32.323891442,2161.0
32.340602711,2059.0
32.357313980,2132.0
32.374025249,2042.0
32.390736518,2206.0
32.407447787,2243.0
32.424159056,2161.0
32.440870325,2166.0
32.457581594,2140.0
32.474292863,2010.0
32.491004132,2060.0
32.507715401,2069.0
32.524426670,2108.0
32.541137939,2125.0
32.557849208,2160.0
32.574560477,2114.0
32.591271746,2212.0
32.607983015,2214.0
32.624694284,2117.0
32.641405553,2190.0
32.658116822,2123.0
32.674828091,2130.0
32.691539360,2030.0
32.708250629,2140.0
32.724961898,2123.0
32.741673167,2157.0
32.758384436,2193.0
32.775095705,2088.0
32.791806974,2075.0
32.808518243,2070.0
32.825229512,2074.0
32.841940781,2136.0
32.858652050,2177.0
32.875363319,2213.0
32.892074588,2126.0
32.908785857,2260.0
32.925497126,2177.0
32.942208395,2125.0
32.958919664,2185.0
32.975630933,2195.0
32.992342201,2126.0
33.009053470,2053.0
33.025764739,2183.0
33.042476008,2135.0
33.059187277,2136.0
33.075898546,2200.0
33.092609815,2209.0
33.109321084,2182.0
33.126032353,2157.0
33.142743622,2158.0
33.159454891,2126.0
33.176166160,2154.0
33.192877429,2171.0
33.209588698,2185.0
33.226299967,2115.0
33.243011236,2174.0
33.259722505,2114.0
33.276433774,2175.0
33.293145043,2168.0
33.309856312,2085.0
33.326567581,2102.0
33.343278850,2000.0
33.359990119,2121.0
33.376701388,2108.0
33.393412657,2168.0
33.410123926,2180.0
33.426835195,2036.0
33.443546464,2177.0
33.460257733,2092.0
33.476969002,2115.0
33.493680271,2133.0
33.510391540,2058.0
33.527102809,2063.0
33.543814078,2187.0
33.560525347,2134.0
33.577236616,2208.0
33.593947885,2035.0
33.610659154,2090.0
33.627370423,2004.0
33.644081692,2113.0
33.660792961,2051.0
33.677504230,2083.0
33.694215499,2132.0
33.710926768,2021.0
33.727638037,2230.0
33.744349306,2051.0
33.761060574,2142.0
33.777771843,2040.0
33.794483112,2185.0
33.811194381,2075.0
33.827905650,2055.0
33.844616919,2085.0
33.861328188,2036.0
33.878039457,2207.0
33.894750726,2152.0
33.911461995,2140.0
33.928173264,2165.0
33.944884533,2089.0
33.961595802,2117.0
33.978307071,2070.0
33.995018340,2015.0
34.011729609,2086.0
34.028440878,2192.0
34.045152147,2049.0
34.061863416,2146.0
34.078574685,2138.0
34.095285954,2183.0
34.111997223,2017.0
34.128708492,2085.0
34.145419761,2081.0
34.162131030,2033.0
34.178842299,2097.0
34.195553568,2210.0
34.212264837,2108.0
34.228976106,2131.0
34.245687375,2055.0
34.262398644,2104.0
34.279109913,2068.0
34.295821182,2066.0
34.312532451,2103.0
34.329243720,2142.0
34.345954989,2110.0
34.362666258,2108.0
34.379377527,2081.0
34.396088796,2131.0
34.412800065,2174.0
34.429511334,2086.0
34.446222603,2137.0
34.462933872,2108.0
34.479645141,2112.0
34.496356410,2129.0
34.513067679,2074.0
34.529778947,2168.0
34.546490216,2130.0
34.563201485,2056.0
34.579912754,2144.0
34.596624023,2102.0
34.613335292,2024.0
34.630046561,2054.0
34.646757830,2108.0
34.663469099,2130.0
34.680180368,2102.0
34.696891637,2132.0
34.713602906,2084.0
34.730314175,2145.0
34.747025444,2081.0
34.763736713,2057.0
34.780447982,2105.0
34.797159251,2112.0
34.813870520,2070.0
34.830581789,2166.0
34.847293058,2054.0
34.864004327,2104.0
34.880715596,2109.0
34.897426865,2138.0
34.914138134,2035.0
34.930849403,2200.0
34.947560672,2156.0
34.964271941,2162.0
34.980983210,2105.0
34.997694479,2135.0
35.014405748,2058.0
35.031117017,2129.0
35.047828286,2015.0
35.064539555,2165.0
35.081250824,2057.0
35.097962093,2149.0
35.114673362,2100.0
35.131384631,2180.0
35.148095900,2054.0
35.164807169,2133.0
35.181518438,2091.0
35.198229707,2096.0
35.214940976,2121.0
35.231652245,2138.0
35.248363514,2107.0
35.265074783,2196.0
35.281786051,2159.0
35.298497320,2159.0
35.315208589,2142.0
35.331919858,2202.0
35.348631127,2276.0
35.365342396,2141.0
35.382053665,2126.0
35.398764934,2203.0
35.415476203,2185.0
35.432187472,2180.0
35.448898741,2197.0
35.465610010,2103.0
35.482321279,2079.0
35.499032548,2138.0
35.515743817,2153.0
35.532455086,2234.0
35.549166355,2264.0
35.565877624,2135.0
35.582588893,2252.0
35.599300162,2162.0
35.616011431,2155.0
35.632722700,2222.0
35.649433969,2260.0
35.666145238,2108.0
35.682856507,2182.0
35.699567776,2131.0
35.716279045,2114.0
35.732990314,2107.0
35.749701583,2147.0
35.766412852,2146.0
35.783124121,2119.0
35.799835390,2212.0
35.816546659,2121.0
35.833257928,2208.0
35.849969197,2139.0
35.866680466,2139.0
35.883391735,2150.0
35.900103004,2176.0
35.916814273,2045.0
35.933525542,2130.0
35.950236811,2280.0
35.966948080,2104.0
35.983659349,2159.0
36.000370618,2107.0
36.017081887,2115.0
36.033793156,2157.0
36.050504424,2084.0
36.067215693,2150.0
36.083926962,2176.0
36.100638231,2088.0
36.117349500,2203.0
36.134060769,2134.0
36.150772038,2175.0
36.167483307,2186.0
36.184194576,2183.0
36.200905845,2158.0
36.217617114,2071.0
36.234328383,2113.0
36.251039652,2162.0
36.267750921,2158.0
36.284462190,2182.0
36.301173459,2146.0
36.317884728,2188.0
36.334595997,2203.0
36.351307266,2203.0
36.368018535,2193.0
36.384729804,2185.0
36.401441073,2168.0
36.418152342,2172.0
36.434863611,2231.0
36.451574880,2214.0
36.468286149,2307.0
36.484997418,2257.0
36.501708687,2343.0
36.518419956,2213.0
36.535131225,2269.0
36.551842494,2332.0
36.568553763,2353.0
36.585265032,2267.0
36.601976301,2360.0
36.618687570,2375.0
36.635398839,2362.0
36.652110108,2388.0
36.668821377,2465.0
36.685532646,2452.0
36.702243915,2501.0
36.718955184,2577.0
36.735666453,2463.0
36.752377722,2466.0
36.769088991,2670.0
36.785800260,2636.0
36.802511528,2688.0
36.819222797,2745.0
36.835934066,2711.0
36.852645335,2849.0
36.869356604,2871.0
36.886067873,2865.0
36.902779142,2978.0
36.919490411,3043.0
36.936201680,2979.0
36.952912949,3056.0
36.969624218,2977.0
36.986335487,3147.0
37.003046756,3200.0
37.019758025,3113.0
37.036469294,3123.0
37.053180563,3157.0
37.069891832,3257.0
37.086603101,3217.0
37.103314370,3082.0
37.120025639,3180.0
37.136736908,3082.0
37.153448177,3074.0
37.170159446,3000.0
37.186870715,3002.0
37.203581984,2969.0
37.220293253,2927.0
37.237004522,2814.0
37.253715791,2703.0
37.270427060,2725.0
37.287138329,2769.0
37.303849598,2730.0
37.320560867,2558.0
37.337272136,2624.0
37.353983405,2551.0
37.370694674,2571.0
37.387405943,2373.0
37.404117212,2486.0
37.420828481,2420.0
37.437539750,2391.0
37.454251019,2396.0
37.470962288,2394.0
37.487673557,2449.0
37.504384826,2325.0
37.521096095,2272.0
37.537807364,2333.0
37.554518633,2304.0
37.571229901,2204.0
37.587941170,2261.0
37.604652439,2184.0
37.621363708,2188.0
37.638074977,2216.0
37.654786246,2144.0
37.671497515,2155.0
37.688208784,2204.0
37.704920053,2113.0
37.721631322,2132.0
37.738342591,2072.0
37.755053860,2075.0
37.771765129,2088.0
37.788476398,2191.0
37.805187667,2139.0
37.821898936,2185.0
37.838610205,2149.0
37.855321474,2183.0
37.872032743,2100.0
37.888744012,2182.0
37.905455281,2151.0
37.922166550,2145.0
37.938877819,2200.0
37.955589088,2149.0
37.972300357,2107.0
37.989011626,2095.0
38.005722895,1981.0
38.022434164,2044.0
38.039145433,2053.0
38.055856702,2058.0
38.072567971,2066.0
38.089279240,2112.0
38.105990509,2163.0
38.122701778,2108.0
38.139413047,2013.0
38.156124316,1970.0
38.172835585,2070.0
38.189546854,1999.0
38.206258123,2031.0
38.222969392,2033.0
38.239680661,2033.0
38.256391930,1993.0
38.273103199,2105.0
38.289814468,2073.0
38.306525737,2089.0
38.323237005,2108.0
38.339948274,2142.0
38.356659543,2040.0
38.373370812,2036.0
38.390082081,2062.0
38.406793350,2051.0
38.423504619,2031.0
38.440215888,2055.0
38.456927157,2047.0
38.473638426,1947.0
38.490349695,1971.0
38.507060964,1939.0
38.523772233,2102.0
38.540483502,1991.0
38.557194771,1913.0
38.573906040,2059.0
38.590617309,2099.0
38.607328578,2035.0
38.624039847,2054.0
38.640751116,2005.0
38.657462385,2032.0
38.674173654,2064.0
38.690884923,1951.0
38.707596192,1981.0
38.724307461,2050.0
38.741018730,1952.0
38.757729999,2075.0
38.774441268,1931.0
38.791152537,2056.0
38.807863806,2025.0
38.824575075,1967.0
38.841286344,2053.0
38.857997613,1990.0
38.874708882,2106.0
38.891420151,2089.0
38.908131420,1957.0
38.924842689,2100.0
38.941553958,2069.0
38.958265227,1936.0
38.974976496,2034.0
38.991687765,2002.0
39.008399034,1999.0
39.025110303,2091.0
39.041821572,2035.0
39.058532841,2062.0
39.075244110,1977.0
39.091955378,2010.0
39.108666647,2029.0
39.125377916,1982.0
39.142089185,2001.0
39.158800454,2070.0
39.175511723,1970.0
39.192222992,1967.0
39.208934261,2013.0
39.225645530,2001.0
39.242356799,1964.0
39.259068068,2019.0
39.275779337,2044.0
39.292490606,2051.0
39.309201875,2054.0
39.325913144,2063.0
39.342624413,1948.0
39.359335682,2004.0
39.376046951,2011.0
39.392758220,1991.0
39.409469489,2087.0
39.426180758,1980.0
39.442892027,2035.0
39.459603296,2102.0
39.476314565,2065.0
39.493025834,2106.0
39.509737103,2080.0
39.526448372,2110.0
39.543159641,2115.0
39.559870910,2158.0
39.576582179,2136.0
39.593293448,2156.0
39.610004717,2183.0
39.626715986,2181.0
39.643427255,2265.0
39.660138524,2380.0
39.676849793,2499.0
39.693561062,2527.0
39.710272331,2313.0
39.726983600,2234.0
39.743694869,2190.0
39.760406138,2215.0
39.777117407,2166.0
39.793828676,2242.0
39.810539945,2190.0
39.827251214,2087.0
39.843962482,2047.0
39.860673751,2079.0
39.877385020,2096.0
39.894096289,2003.0
39.910807558,2062.0
39.927518827,2115.0
39.944230096,2067.0
39.960941365,1994.0
39.977652634,2124.0
39.994363903,2123.0
40.011075172,2163.0
40.027786441,2171.0
40.044497710,2077.0
40.061208979,1985.0
40.077920248,2110.0
40.094631517,2045.0
40.111342786,2012.0
40.128054055,2050.0
40.144765324,2042.0
40.161476593,2028.0
40.178187862,2047.0
40.194899131,1966.0
40.211610400,2050.0
40.228321669,2005.0
40.245032938,1991.0
40.261744207,2081.0
40.278455476,2027.0
40.295166745,2010.0
40.311878014,1960.0
40.328589283,2013.0
40.345300552,2015.0
40.362011821,2015.0
40.378723090,2067.0
40.395434359,1927.0
40.412145628,1932.0
40.428856897,1991.0
40.445568166,2053.0
40.462279435,1997.0
40.478990704,2008.0
40.495701973,1959.0
40.512413242,2006.0
40.529124511,1931.0
40.545835780,2004.0
40.562547049,1957.0
40.579258318,1965.0
40.595969587,2033.0
40.612680855,2006.0
40.629392124,2024.0
40.646103393,2015.0
40.662814662,1905.0
40.679525931,1983.0
40.696237200,2101.0
40.712948469,2044.0
40.729659738,1963.0
40.746371007,1924.0
40.763082276,1974.0
40.779793545,1985.0
40.796504814,1934.0
40.813216083,1956.0
40.829927352,1942.0
40.846638621,2014.0
40.863349890,2045.0
40.880061159,2001.0
40.896772428,1962.0
40.913483697,1940.0
40.930194966,2064.0
40.946906235,2063.0
40.963617504,2022.0
40.980328773,2005.0
40.997040042,1941.0
41.013751311,2007.0
41.030462580,1980.0
41.047173849,2024.0
41.063885118,1970.0
41.080596387,2020.0
41.097307656,2052.0
41.114018925,2016.0
41.130730194,1916.0
41.147441463,2037.0
41.164152732,2034.0
41.180864001,1995.0
41.197575270,2011.0
41.214286539,1963.0
41.230997808,1938.0
41.247709077,1905.0
41.264420346,2052.0
41.281131615,2009.0
41.297842884,1941.0
41.314554153,1934.0
41.331265422,1883.0
41.347976691,2050.0
41.364687959,1995.0
41.381399228,2017.0
41.398110497,2013.0
41.414821766,2036.0
41.431533035,2031.0
41.448244304,1932.0
41.464955573,1956.0
41.481666842,2022.0
41.498378111,2042.0
41.515089380,2017.0
41.531800649,2023.0
41.548511918,1953.0
41.565223187,2008.0
41.581934456,2032.0
41.598645725,2035.0
41.615356994,2036.0
41.632068263,2019.0
41.648779532,2001.0
41.665490801,2076.0
41.682202070,2063.0
41.698913339,2047.0
41.715624608,2078.0
41.732335877,2048.0
41.749047146,2040.0
41.765758415,2056.0
41.782469684,1999.0
41.799180953,1966.0
41.815892222,2068.0
41.832603491,2045.0
41.849314760,2089.0
41.866026029,2131.0
41.882737298,2031.0
41.899448567,2028.0
41.916159836,1982.0
41.932871105,2040.0
41.949582374,2000.0
41.966293643,2014.0
41.983004912,2173.0
41.999716181,1971.0
42.016427450,1986.0
42.033138719,2029.0
42.049849988,2072.0
42.066561257,2019.0
42.083272526,2110.0
42.099983795,2079.0
42.116695064,2111.0
42.133406332,2143.0
42.150117601,2115.0
42.166828870,2078.0
42.183540139,2082.0
42.200251408,2052.0
42.216962677,2063.0
42.233673946,2080.0
42.250385215,2045.0
42.267096484,2046.0
42.283807753,2158.0
42.300519022,2168.0
42.317230291,2067.0
42.333941560,2176.0
42.350652829,2193.0
42.367364098,2225.0
42.384075367,2155.0
42.400786636,2158.0
42.417497905,2197.0
42.434209174,2257.0
42.450920443,2177.0
42.467631712,2289.0
42.484342981,2246.0
42.501054250,2276.0
42.517765519,2281.0
42.534476788,2376.0
42.551188057,2328.0
42.567899326,2376.0
42.584610595,2427.0
42.601321864,2420.0
42.618033133,2451.0
42.634744402,2419.0
42.651455671,2499.0
42.668166940,2507.0
42.684878209,2495.0
42.701589478,2644.0
42.718300747,2567.0
42.735012016,2721.0
42.751723285,2686.0
42.768434554,2701.0
42.785145823,2833.0
42.801857092,2872.0
42.818568361,2946.0
42.835279630,3023.0
42.851990899,3130.0
42.868702168,3095.0
42.885413436,3203.0
42.902124705,3283.0
42.918835974,3251.0
42.935547243,3282.0
42.952258512,3481.0
42.968969781,3445.0
42.985681050,3485.0
43.002392319,3509.0
43.019103588,3635.0
43.035814857,3516.0
43.052526126,3655.0
43.069237395,3619.0
43.085948664,3628.0
43.102659933,3555.0
43.119371202,3527.0
43.136082471,3471.0
43.152793740,3457.0
43.169505009,3435.0
43.186216278,3344.0
43.202927547,3434.0
43.219638816,3264.0
43.236350085,3193.0
43.253061354,3153.0
43.269772623,3189.0
43.286483892,3095.0
43.303195161,3037.0
43.319906430,2896.0
43.336617699,2863.0
43.353328968,2766.0
43.370040237,2798.0
43.386751506,2805.0
43.403462775,2710.0
43.420174044,2667.0
43.436885313,2589.0
43.453596582,2653.0
43.470307851,2514.0
43.487019120,2471.0
43.503730389,2404.0
43.520441658,2425.0
43.537152927,2471.0
43.553864196,2404.0
43.570575465,2428.0
43.587286734,2449.0
43.603998003,2490.0
43.620709272,2422.0
43.637420541,2433.0
43.654131809,2364.0
43.670843078,2449.0
43.687554347,2480.0
43.704265616,2416.0
43.720976885,2495.0
43.737688154,2547.0
43.754399423,2480.0
43.771110692,2618.0
43.787821961,2635.0
43.804533230,2860.0
43.821244499,2813.0
43.837955768,2884.0
43.854667037,3032.0
43.871378306,3059.0
43.888089575,3189.0
43.904800844,3194.0
43.921512113,3360.0
43.938223382,3572.0
43.954934651,3775.0
43.971645920,3958.0
43.988357189,4007.0
44.005068458,4410.0
44.021779727,4599.0
44.038490996,5004.0
44.055202265,5337.0
44.071913534,5433.0
44.088624803,5767.0
44.105336072,5978.0
44.122047341,6279.0
44.138758610,6369.0
44.155469879,6339.0
44.172181148,6309.0
44.188892417,6275.0
44.205603686,6103.0
44.222314955,5903.0
44.239026224,5691.0
44.255737493,5187.0
44.272448762,5057.0
44.289160031,4615.0
44.305871300,4322.0
44.322582569,3981.0
44.339293838,3832.0
44.356005107,3336.0
44.372716376,3234.0
44.389427645,2946.0
44.406138913,2849.0
44.422850182,2629.0
44.439561451,2571.0
44.456272720,2447.0
44.472983989,2461.0
44.489695258,2384.0
44.506406527,2246.0
44.523117796,2212.0
44.539829065,2194.0
44.556540334,2159.0
44.573251603,2125.0
44.589962872,2145.0
44.606674141,2153.0
44.623385410,2091.0
44.640096679,2075.0
44.656807948,2116.0
44.673519217,2025.0
44.690230486,2037.0
44.706941755,2002.0
44.723653024,2119.0
44.740364293,2076.0
44.757075562,1994.0
44.773786831,1991.0
44.790498100,1970.0
44.807209369,2007.0
44.823920638,1936.0
44.840631907,2050.0
44.857343176,2052.0
44.874054445,2099.0
44.890765714,1945.0
44.907476983,2092.0
44.924188252,1997.0
44.940899521,2093.0
44.957610790,2062.0
44.974322059,2004.0
44.991033328,1985.0
45.007744597,1951.0
45.024455866,2063.0
45.041167135,2050.0
45.057878404,2063.0
45.074589673,1976.0
45.091300942,2015.0
45.108012211,2053.0
45.124723480,2012.0
45.141434749,1942.0
45.158146018,2064.0
45.174857286,2078.0
45.191568555,2028.0
45.208279824,2089.0
45.224991093,2145.0
45.241702362,2123.0
45.258413631,2105.0
45.275124900,2202.0
45.291836169,2129.0
45.308547438,2129.0
45.325258707,2047.0
45.341969976,2138.0
45.358681245,2119.0
45.375392514,2046.0
45.392103783,2031.0
45.408815052,1964.0
45.425526321,2073.0
45.442237590,1965.0
45.458948859,2095.0
45.475660128,2008.0
45.492371397,2044.0
45.509082666,2095.0
45.525793935,2076.0
45.542505204,1995.0
45.559216473,1979.0
45.575927742,1968.0
45.592639011,1942.0
45.609350280,1954.0
45.626061549,2075.0
45.642772818,1966.0
45.659484087,2071.0
45.676195356,1978.0
45.692906625,2039.0
45.709617894,1993.0
45.726329163,2007.0
45.743040432,2041.0
45.759751701,2034.0
45.776462970,2047.0
45.793174239,2016.0
45.809885508,2054.0
45.826596777,1979.0
45.843308046,2135.0
45.860019315,1961.0
45.876730584,2110.0
45.893441853,2146.0
45.910153122,2207.0
45.926864390,2258.0
45.943575659,2348.0
45.960286928,2405.0
45.976998197,2564.0
45.993709466,2622.0
46.010420735,2813.0
46.027132004,3054.0
46.043843273,3189.0
46.060554542,3378.0
46.077265811,3641.0
46.093977080,4187.0
46.110688349,5542.0
46.127399618,7437.0
46.144110887,7933.0
46.160822156,5942.0
46.177533425,4134.0
46.194244694,3426.0
46.210955963,3392.0
46.227667232,3681.0
46.244378501,4403.0
46.261089770,5155.0
46.277801039,4470.0
46.294512308,3535.0
46.311223577,2877.0
46.327934846,2802.0
46.344646115,2784.0
46.361357384,2708.0
46.378068653,2893.0
46.394779922,3012.0
46.411491191,3194.0
46.428202460,3242.0
46.444913729,3506.0
46.461624998,3338.0
46.478336267,3414.0
46.495047536,3446.0
46.511758805,3346.0
46.528470074,3269.0
46.545181343,3210.0
46.561892612,3094.0
46.578603881,2946.0
46.595315150,2878.0
46.612026419,2847.0
46.628737688,2726.0
46.645448957,2605.0
46.662160226,2445.0
46.678871495,2328.0
46.695582763,2298.0
46.712294032,2301.0
46.729005301,2114.0
46.745716570,2160.0
46.762427839,2074.0
46.779139108,1993.0
46.795850377,1989.0
46.812561646,1898.0
46.829272915,1905.0
46.845984184,1874.0
46.862695453,1967.0
46.879406722,1927.0
46.896117991,1895.0
46.912829260,1945.0
46.929540529,1936.0
46.946251798,1924.0
46.962963067,1973.0
46.979674336,1910.0
46.996385605,1871.0
47.013096874,1897.0
47.029808143,1870.0
47.046519412,1915.0
47.063230681,1884.0
47.079941950,1911.0
47.096653219,1939.0
47.113364488,1953.0
47.130075757,1869.0
47.146787026,1897.0
47.163498295,1822.0
47.180209564,1953.0
47.196920833,1911.0
47.213632102,1874.0
47.230343371,1882.0
47.247054640,1849.0
47.263765909,1899.0
47.280477178,1925.0
47.297188447,1900.0
47.313899716,1940.0
47.330610985,1980.0
47.347322254,1846.0
47.364033523,1841.0
47.380744792,1961.0
47.397456061,1867.0
47.414167330,1928.0
47.430878599,1897.0
47.447589867,1859.0
47.464301136,1896.0
47.481012405,1869.0
47.497723674,1758.0
47.514434943,1871.0
47.531146212,1885.0
47.547857481,1867.0
47.564568750,1830.0
47.581280019,1853.0
47.597991288,1853.0
47.614702557,1868.0
47.631413826,1887.0
47.648125095,1863.0
47.664836364,1853.0
47.681547633,1925.0
47.698258902,1770.0
47.714970171,1871.0
47.731681440,1901.0
47.748392709,1874.0
47.765103978,1845.0
47.781815247,1888.0
47.798526516,1894.0
47.815237785,1838.0
47.831949054,1823.0
47.848660323,1863.0
47.865371592,1822.0
47.882082861,1820.0
47.898794130,1847.0
47.915505399,1857.0
47.932216668,1849.0
47.948927937,1845.0
47.965639206,1803.0
47.982350475,1825.0
47.999061744,1856.0
48.015773013,1871.0
48.032484282,1928.0
48.049195551,1820.0
48.065906820,1967.0
48.082618089,1883.0
48.099329358,1868.0
48.116040627,1837.0
48.132751896,1887.0
48.149463165,1853.0
48.166174434,1820.0
48.182885703,1924.0
48.199596972,1770.0
48.216308240,1814.0
48.233019509,1828.0
48.249730778,1834.0
48.266442047,1881.0
48.283153316,1902.0
48.299864585,1814.0
48.316575854,1928.0
48.333287123,1743.0
48.349998392,1947.0
48.366709661,1839.0
48.383420930,1861.0
48.400132199,1828.0
48.416843468,1885.0
48.433554737,1849.0
48.450266006,1759.0
48.466977275,1893.0
48.483688544,1905.0
48.500399813,1780.0
48.517111082,1803.0
48.533822351,1853.0
48.550533620,1848.0
48.567244889,1905.0
48.583956158,1852.0
48.600667427,1789.0
48.617378696,1868.0
48.634089965,1826.0
48.650801234,1834.0
48.667512503,1820.0
48.684223772,1913.0
48.700935041,1895.0
48.717646310,1788.0
48.734357579,1792.0
48.751068848,1797.0
48.767780117,1859.0
48.784491386,1825.0
48.801202655,1950.0
48.817913924,1870.0
48.834625193,1811.0
48.851336462,1792.0
48.868047731,1790.0
48.884759000,1736.0
48.901470269,1785.0
48.918181538,1811.0
48.934892807,1867.0
48.951604076,1811.0
48.968315344,1771.0
48.985026613,1744.0
49.001737882,1845.0
49.018449151,1767.0
49.035160420,1875.0
49.051871689,1809.0
49.068582958,1793.0
49.085294227,1859.0
49.102005496,1947.0
49.118716765,1863.0
49.135428034,1874.0
49.152139303,1924.0
49.168850572,1819.0
49.185561841,1807.0
49.202273110,1901.0
49.218984379,1798.0
49.235695648,1916.0
49.252406917,1933.0
49.269118186,1926.0
49.285829455,1868.0
49.302540724,1967.0
49.319251993,1951.0
49.335963262,2061.0
49.352674531,1965.0
49.369385800,2000.0
49.386097069,2012.0
49.402808338,2043.0
49.419519607,1992.0
49.436230876,2035.0
49.452942145,2034.0
49.469653414,2002.0
49.486364683,1970.0
49.503075952,1903.0
49.519787221,2010.0
49.536498490,1954.0
49.553209759,1905.0
49.569921028,1892.0
49.586632297,1845.0
49.603343566,1881.0
49.620054835,1828.0
49.636766104,1824.0
49.653477373,1863.0
49.670188642,1848.0
49.686899911,1873.0
49.703611180,1841.0
49.720322449,1786.0
49.737033717,1841.0
49.753744986,1851.0
49.770456255,1778.0
49.787167524,1786.0
49.803878793,1804.0
49.820590062,1803.0
49.837301331,1768.0
49.854012600,1817.0
49.870723869,1820.0
49.887435138,1888.0
49.904146407,1802.0
49.920857676,1723.0
49.937568945,1791.0
49.954280214,1850.0
49.970991483,1835.0
49.987702752,1914.0
50.004414021,1873.0
50.021125290,1936.0
50.037836559,1903.0
50.054547828,1875.0
50.071259097,1901.0
50.087970366,1872.0
50.104681635,1875.0
50.121392904,1894.0
50.138104173,1787.0
50.154815442,1958.0
50.171526711,1900.0
50.188237980,1877.0
50.204949249,1945.0
50.221660518,1954.0
50.238371787,1981.0
50.255083056,2043.0
50.271794325,2010.0
50.288505594,2073.0
50.305216863,2095.0
50.321928132,2044.0
50.338639401,2239.0
50.355350670,2182.0
50.372061939,2249.0
50.388773208,2203.0
50.405484477,2185.0
50.422195746,2207.0
50.438907015,2134.0
50.455618284,2246.0
50.472329553,2104.0
50.489040821,2157.0
50.505752090,2037.0
50.522463359,2013.0
50.539174628,2000.0
50.555885897,1960.0
50.572597166,1923.0
50.589308435,1948.0
50.606019704,1962.0
50.622730973,1931.0
50.639442242,1971.0
50.656153511,1901.0
50.672864780,1863.0
50.689576049,1871.0
50.706287318,1893.0
50.722998587,1842.0
50.739709856,1853.0
50.756421125,1895.0
50.773132394,1885.0
50.789843663,1887.0
50.806554932,1904.0
50.823266201,1826.0
50.839977470,1878.0
50.856688739,1913.0
50.873400008,1933.0
50.890111277,1903.0
50.906822546,1876.0
50.923533815,1898.0
50.940245084,1958.0
50.956956353,1907.0
50.973667622,1920.0
50.990378891,1894.0
51.007090160,1947.0
51.023801429,2022.0
51.040512698,1987.0
51.057223967,2029.0
51.073935236,2027.0
51.090646505,2112.0
51.107357774,2005.0
51.124069043,2116.0
51.140780312,2203.0
51.157491581,2192.0
51.174202850,2237.0
51.190914119,2368.0
51.207625388,2317.0
51.224336657,2368.0
51.241047926,2463.0
51.257759194,2523.0
51.274470463,2555.0
51.291181732,2633.0
51.307893001,2825.0
51.324604270,2801.0
51.341315539,2788.0
51.358026808,3052.0
51.374738077,3009.0
51.391449346,3192.0
51.408160615,3177.0
51.424871884,3129.0
51.441583153,3098.0
51.458294422,3153.0
51.475005691,3079.0
51.491716960,3219.0
51.508428229,3040.0
51.525139498,2964.0
51.541850767,3064.0
51.558562036,2874.0
51.575273305,2746.0
51.591984574,2809.0
51.608695843,2709.0
51.625407112,2490.0
51.642118381,2496.0
51.658829650,2364.0
51.675540919,2364.0
51.692252188,2327.0
51.708963457,2090.0
51.725674726,2213.0
51.742385995,2060.0
51.759097264,2067.0
51.775808533,2002.0
51.792519802,1945.0
51.809231071,2005.0
51.825942340,2046.0
51.842653609,1983.0
51.859364878,1909.0
51.876076147,1878.0
51.892787416,1884.0
51.909498685,1960.0
51.926209954,1870.0
51.942921223,1789.0
51.959632492,1871.0
51.976343761,1898.0
51.993055030,1866.0
52.009766299,1916.0
52.026477567,1759.0
52.043188836,1783.0
52.059900105,1913.0
52.076611374,1827.0
52.093322643,1778.0
52.110033912,1821.0
52.126745181,1811.0
52.143456450,1815.0
52.160167719,1793.0
52.176878988,1769.0
52.193590257,1763.0
52.210301526,1774.0
52.227012795,1804.0
52.243724064,1747.0
52.260435333,1789.0
52.277146602,1852.0
52.293857871,1895.0
52.310569140,1830.0
52.327280409,1793.0
52.343991678,1844.0
52.360702947,1820.0
52.377414216,1748.0
52.394125485,1707.0
52.410836754,1816.0
52.427548023,1775.0
52.444259292,1814.0
52.460970561,1762.0
52.477681830,1755.0
52.494393099,1818.0
52.511104368,1768.0
52.527815637,1741.0
52.544526906,1723.0
52.561238175,1830.0
52.577949444,1846.0
52.594660713,1718.0
52.611371982,1752.0
52.628083251,1729.0
52.644794520,1845.0
52.661505789,1736.0
52.678217058,1811.0
52.694928327,1810.0
52.711639596,1844.0
52.728350865,1771.0
52.745062134,1680.0
52.761773403,1748.0
52.778484671,1785.0
52.795195940,1806.0
52.811907209,1814.0
52.828618478,1753.0
52.845329747,1769.0
52.862041016,1841.0
52.878752285,1728.0
52.895463554,1873.0
52.912174823,1730.0
52.928886092,1737.0
52.945597361,1783.0
52.962308630,1801.0
52.979019899,1874.0
52.995731168,1781.0
53.012442437,1826.0
53.029153706,1758.0
53.045864975,1799.0
53.062576244,1712.0
53.079287513,1739.0
53.095998782,1794.0
53.112710051,1705.0
53.129421320,1835.0
53.146132589,1725.0
53.162843858,1852.0
53.179555127,1771.0
53.196266396,1727.0
53.212977665,1794.0
53.229688934,1798.0
53.246400203,1723.0
53.263111472,1763.0
53.279822741,1732.0
53.296534010,1784.0
53.313245279,1801.0
53.329956548,1757.0
53.346667817,1787.0
53.363379086,1775.0
53.380090355,1783.0
53.396801624,1759.0
53.413512893,1848.0
53.430224162,1844.0
53.446935431,1788.0
53.463646700,1800.0
53.480357969,1762.0
53.497069238,1645.0
53.513780507,1762.0
53.530491776,1794.0
53.547203044,1808.0
53.563914313,1816.0
53.580625582,1833.0
53.597336851,1691.0
53.614048120,1766.0
53.630759389,1803.0
53.647470658,1773.0
53.664181927,1781.0
53.680893196,1732.0
53.697604465,1746.0
53.714315734,1872.0
53.731027003,1837.0
53.747738272,1835.0
53.764449541,1769.0
53.781160810,1748.0
53.797872079,1749.0
53.814583348,1855.0
53.831294617,1829.0
53.848005886,1732.0
53.864717155,1764.0
53.881428424,1747.0
53.898139693,1779.0
53.914850962,1671.0
53.931562231,1810.0
53.948273500,1759.0
53.964984769,1783.0
53.981696038,1766.0
53.998407307,1755.0
54.015118576,1750.0
54.031829845,1769.0
54.048541114,1747.0
54.065252383,1709.0
54.081963652,1644.0
54.098674921,1804.0
54.115386190,1797.0
54.132097459,1839.0
54.148808728,1790.0
54.165519997,1749.0
54.182231266,1680.0
54.198942535,1741.0
54.215653804,1783.0
54.232365073,1822.0
54.249076342,1791.0
54.265787611,1772.0
54.282498880,1815.0
54.299210148,1679.0
54.315921417,1787.0
54.332632686,1762.0
54.349343955,1812.0
54.366055224,1764.0
54.382766493,1736.0
54.399477762,1746.0
54.416189031,1696.0
54.432900300,1786.0
54.449611569,1794.0
54.466322838,1783.0
54.483034107,1781.0
54.499745376,1802.0
54.516456645,1802.0
54.533167914,1706.0
54.549879183,1754.0
54.566590452,1773.0
54.583301721,1839.0
54.600012990,1692.0
54.616724259,1789.0
54.633435528,1832.0
54.650146797,1790.0
54.666858066,1848.0
54.683569335,1723.0
54.700280604,1684.0
54.716991873,1791.0
54.733703142,1767.0
54.750414411,1799.0
54.767125680,1766.0
54.783836949,1775.0
54.800548218,1802.0
54.817259487,1801.0
54.833970756,1731.0
54.850682025,1801.0
54.867393294,1788.0
54.884104563,1788.0
54.900815832,1729.0
54.917527101,1733.0
54.934238370,1715.0
54.950949639,1756.0
54.967660908,1744.0
54.984372177,1708.0
55.001083446,1776.0
55.017794715,1783.0
55.034505984,1821.0
55.051217253,1786.0
55.067928521,1808.0
55.084639790,1769.0
55.101351059,1761.0
55.118062328,1705.0
55.134773597,1783.0
55.151484866,1810.0
55.168196135,1697.0
55.184907404,1790.0
55.201618673,1790.0
55.218329942,1802.0
55.235041211,1737.0
55.251752480,1808.0
55.268463749,1717.0
55.285175018,1782.0
55.301886287,1649.0
55.318597556,1796.0
55.335308825,1748.0
55.352020094,1807.0
55.368731363,1732.0
55.385442632,1799.0
55.402153901,1776.0
55.418865170,1758.0
55.435576439,1766.0
55.452287708,1758.0
55.468998977,1779.0
55.485710246,1772.0
55.502421515,1806.0
55.519132784,1774.0
55.535844053,1734.0
55.552555322,1691.0
55.569266591,1767.0
55.585977860,1855.0
55.602689129,1750.0
55.619400398,1821.0
55.636111667,1761.0
55.652822936,1777.0
55.669534205,1751.0
55.686245474,1852.0
55.702956743,1764.0
55.719668012,1842.0
55.736379281,1794.0
55.753090550,1722.0
55.769801819,1814.0
55.786513088,1764.0
55.803224357,1672.0
55.819935625,1802.0
55.836646894,1734.0
55.853358163,1762.0
55.870069432,1826.0
55.886780701,1659.0
55.903491970,1731.0
55.920203239,1811.0
55.936914508,1736.0
55.953625777,1779.0
55.970337046,1774.0
55.987048315,1772.0
56.003759584,1718.0
56.020470853,1700.0
56.037182122,1783.0
56.053893391,1760.0
56.070604660,1801.0
56.087315929,1729.0
56.104027198,1789.0
56.120738467,1760.0
56.137449736,1751.0
56.154161005,1850.0
56.170872274,1716.0
56.187583543,1755.0
56.204294812,1781.0
56.221006081,1749.0
56.237717350,1761.0
56.254428619,1799.0
56.271139888,1788.0
56.287851157,1726.0
56.304562426,1743.0
56.321273695,1768.0
56.337984964,1770.0
56.354696233,1763.0
56.371407502,1806.0
56.388118771,1887.0
56.404830040,1778.0
56.421541309,1787.0
56.438252578,1787.0
56.454963847,1830.0
56.471675116,1744.0
56.488386385,1757.0
56.505097654,1796.0
56.521808923,1725.0
56.538520192,1765.0
56.555231461,1735.0
56.571942730,1708.0
56.588653998,1704.0
56.605365267,1813.0
56.622076536,1813.0
56.638787805,1781.0
56.655499074,1744.0
56.672210343,1844.0
56.688921612,1773.0
56.705632881,1798.0
56.722344150,1788.0
56.739055419,1724.0
56.755766688,1823.0
56.772477957,1776.0
56.789189226,1786.0
56.805900495,1713.0
56.822611764,1731.0
56.839323033,1788.0
56.856034302,1717.0
56.872745571,1743.0
56.889456840,1809.0
56.906168109,1698.0
56.922879378,1729.0
56.939590647,1796.0
56.956301916,1711.0
56.973013185,1764.0
56.989724454,1711.0
57.006435723,1806.0
57.023146992,1767.0
57.039858261,1721.0
57.056569530,1775.0
57.073280799,1681.0
57.089992068,1767.0
57.106703337,1842.0
57.123414606,1756.0
57.140125875,1781.0
57.156837144,1712.0
57.173548413,1736.0
57.190259682,1702.0
57.206970951,1766.0
57.223682220,1812.0
57.240393489,1721.0
57.257104758,1691.0
57.273816027,1833.0
57.290527296,1714.0
57.307238565,1714.0
57.323949834,1772.0
57.340661102,1683.0
57.357372371,1810.0
57.374083640,1793.0
57.390794909,1797.0
57.407506178,1677.0
57.424217447,1799.0
57.440928716,1703.0
57.457639985,1799.0
57.474351254,1735.0
57.491062523,1844.0
57.507773792,1843.0
57.524485061,1757.0
57.541196330,1715.0
57.557907599,1787.0
57.574618868,1731.0
57.591330137,1883.0
57.608041406,1785.0
57.624752675,1726.0
57.641463944,1736.0
57.658175213,1788.0
57.674886482,1863.0
57.691597751,1790.0
57.708309020,1806.0
57.725020289,1798.0
57.741731558,1823.0
57.758442827,1791.0
57.775154096,1810.0
57.791865365,1797.0
57.808576634,1777.0
57.825287903,1702.0
57.841999172,1781.0
57.858710441,1796.0
57.875421710,1715.0
57.892132979,1840.0
57.908844248,1789.0
57.925555517,1694.0
57.942266786,1805.0
57.958978055,1788.0
57.975689324,1764.0
57.992400593,1694.0
58.009111862,1825.0
58.025823131,1809.0
58.042534400,1870.0
58.059245669,1802.0
58.075956938,1772.0
58.092668207,1878.0
58.109379475,1766.0
58.126090744,1815.0
58.142802013,1813.0
58.159513282,1799.0
58.176224551,1804.0
58.192935820,1844.0
58.209647089,1789.0
58.226358358,1832.0
58.243069627,1814.0
58.259780896,1826.0
58.276492165,1793.0
58.293203434,1782.0
58.309914703,1788.0
58.326625972,1766.0
58.343337241,1699.0
58.360048510,1861.0
58.376759779,1744.0
58.393471048,1797.0
58.410182317,1898.0
58.426893586,1770.0
58.443604855,1843.0
58.460316124,1796.0
58.477027393,1805.0
58.493738662,1817.0
58.510449931,1726.0
58.527161200,1871.0
58.543872469,1758.0
58.560583738,1780.0
58.577295007,1727.0
58.594006276,1849.0
58.610717545,1803.0
58.627428814,1806.0
58.644140083,1813.0
58.660851352,1826.0
58.677562621,1767.0
58.694273890,1821.0
58.710985159,1782.0
58.727696428,1760.0
58.744407697,1785.0
58.761118966,1817.0
58.777830235,1844.0
58.794541504,1768.0
58.811252773,1758.0
58.827964042,1719.0
58.844675311,1716.0
58.861386579,1840.0
58.878097848,1816.0
58.894809117,1890.0
58.911520386,1794.0
58.928231655,1756.0
58.944942924,1800.0
58.961654193,1828.0
58.978365462,1801.0
58.995076731,1725.0
59.011788000,1846.0
59.028499269,1822.0
59.045210538,1726.0
59.061921807,1841.0
59.078633076,1809.0
59.095344345,1857.0
59.112055614,1815.0
59.128766883,1803.0
59.145478152,1748.0
59.162189421,1845.0
59.178900690,1819.0
59.195611959,1812.0
59.212323228,1792.0
59.229034497,1849.0
59.245745766,1821.0
59.262457035,1755.0
59.279168304,1852.0
59.295879573,1818.0
59.312590842,1876.0
59.329302111,1862.0
59.346013380,1797.0
59.362724649,1835.0
59.379435918,1814.0
59.396147187,1790.0
59.412858456,1831.0
59.429569725,1877.0
59.446280994,1840.0
59.462992263,1840.0
59.479703532,1862.0
59.496414801,1837.0
59.513126070,1853.0
59.529837339,1911.0
59.546548608,1839.0
59.563259877,1880.0
59.579971146,1840.0
59.596682415,1946.0
59.613393684,1809.0
59.630104952,1790.0
59.646816221,1842.0
59.663527490,1760.0
59.680238759,1759.0
59.696950028,1824.0
59.713661297,1786.0
59.730372566,1709.0
59.747083835,1793.0
59.763795104,1749.0
59.780506373,1876.0
59.797217642,1842.0
59.813928911,1822.0
59.830640180,1879.0
59.847351449,1841.0
59.864062718,1791.0
59.880773987,1874.0
59.897485256,1870.0
59.914196525,1818.0
59.930907794,1849.0
59.947619063,1873.0
59.964330332,1811.0
59.981041601,1821.0
59.997752870,1801.0
60.014464139,1868.0
60.031175408,1849.0
60.047886677,1763.0
60.064597946,1811.0
60.081309215,1886.0
60.098020484,1960.0
60.114731753,1916.0
60.131443022,1824.0
60.148154291,1844.0
60.164865560,1842.0
60.181576829,1886.0
60.198288098,1885.0
60.214999367,1837.0
60.231710636,1783.0
60.248421905,1882.0
60.265133174,1871.0
60.281844443,1815.0
60.298555712,1806.0
60.315266981,1784.0
60.331978250,1809.0
60.348689519,1868.0
60.365400788,1836.0
60.382112056,1779.0
60.398823325,1873.0
60.415534594,1865.0
60.432245863,1867.0
60.448957132,1807.0
60.465668401,1768.0
60.482379670,1828.0
60.499090939,1868.0
60.515802208,1852.0
60.532513477,1803.0
60.549224746,1868.0
60.565936015,1849.0
60.582647284,1904.0
60.599358553,1816.0
60.616069822,1905.0
60.632781091,1873.0
60.649492360,1845.0
60.666203629,1955.0
60.682914898,1885.0
60.699626167,1842.0
60.716337436,1868.0
60.733048705,1772.0
60.749759974,1867.0
60.766471243,1938.0
60.783182512,1895.0
60.799893781,1837.0
60.816605050,1842.0
60.833316319,1874.0
60.850027588,1878.0
60.866738857,1883.0
60.883450126,1974.0
60.900161395,1899.0
60.916872664,1931.0
60.933583933,1793.0
60.950295202,1876.0
60.967006471,1893.0
60.983717740,1825.0
61.000429009,1916.0
61.017140278,1819.0
61.033851547,1875.0
61.050562816,1838.0
61.067274085,1974.0
61.083985354,1939.0
61.100696623,1940.0
61.117407892,1902.0
61.134119161,1962.0
61.150830429,1964.0
61.167541698,1812.0
61.184252967,1864.0
61.200964236,1836.0
61.217675505,2008.0
61.234386774,1958.0
61.251098043,1806.0
61.267809312,1894.0
61.284520581,1926.0
61.301231850,1957.0
61.317943119,1955.0
61.334654388,1948.0
61.351365657,1842.0
61.368076926,1912.0
61.384788195,1960.0
61.401499464,1968.0
61.418210733,1881.0
61.434922002,1966.0
61.451633271,1938.0
61.468344540,1935.0
61.485055809,2073.0
61.501767078,1957.0
61.518478347,1935.0
61.535189616,1932.0
61.551900885,1963.0
61.568612154,2012.0
61.585323423,2020.0
61.602034692,1997.0
61.618745961,2031.0
61.635457230,1927.0
61.652168499,1987.0
61.668879768,1969.0
61.685591037,1888.0
61.702302306,2009.0
61.719013575,2011.0
61.735724844,1971.0
61.752436113,1962.0
61.769147382,2011.0
61.785858651,2045.0
61.802569920,2030.0
61.819281189,2026.0
61.835992458,2032.0
61.852703727,2031.0
61.869414996,2017.0
61.886126265,2077.0
61.902837533,2000.0
61.919548802,2061.0
61.936260071,2091.0
61.952971340,2124.0
61.969682609,2107.0
61.986393878,2115.0
62.003105147,2139.0
62.019816416,2096.0
62.036527685,2127.0
62.053238954,2193.0
62.069950223,2259.0
62.086661492,2183.0
62.103372761,2200.0
62.120084030,2259.0
62.136795299,2263.0
62.153506568,2199.0
62.170217837,2234.0
62.186929106,2297.0
62.203640375,2343.0
62.220351644,2336.0
62.237062913,2247.0
62.253774182,2371.0
62.270485451,2303.0
62.287196720,2330.0
62.303907989,2350.0
62.320619258,2391.0
62.337330527,2440.0
62.354041796,2393.0
62.370753065,2422.0
62.387464334,2359.0
62.404175603,2389.0
62.420886872,2412.0
62.437598141,2497.0
62.454309410,2425.0
62.471020679,2509.0
62.487731948,2545.0
62.504443217,2524.0
62.521154486,2452.0
62.537865755,2391.0
62.554577024,2471.0
62.571288293,2567.0
62.587999562,2403.0
62.604710831,2545.0
62.621422100,2431.0
62.638133369,2501.0
62.654844638,2478.0
62.671555906,2433.0
62.688267175,2408.0
62.704978444,2507.0
62.721689713,2439.0
62.738400982,2352.0
62.755112251,2387.0
62.771823520,2449.0
62.788534789,2300.0
62.805246058,2213.0
62.821957327,2345.0
62.838668596,2298.0
62.855379865,2329.0
62.872091134,2317.0
62.888802403,2371.0
62.905513672,2269.0
62.922224941,2291.0
62.938936210,2198.0
62.955647479,2258.0
62.972358748,2196.0
62.989070017,2237.0
63.005781286,2130.0
63.022492555,2161.0
63.039203824,2212.0
63.055915093,2174.0
63.072626362,2229.0
63.089337631,2164.0
63.106048900,2144.0
63.122760169,2163.0
63.139471438,2184.0
63.156182707,2102.0
63.172893976,2140.0
63.189605245,2148.0
63.206316514,2174.0
63.223027783,2048.0
63.239739052,2150.0
63.256450321,2077.0
63.273161590,2088.0
63.289872859,2154.0
63.306584128,2130.0
63.323295397,2132.0
63.340006666,2115.0
63.356717935,2176.0
63.373429204,2189.0
63.390140473,2075.0
63.406851742,2069.0
63.423563010,2045.0
63.440274279,2062.0
63.456985548,2062.0
63.473696817,2112.0
63.490408086,2130.0
63.507119355,2082.0
63.523830624,2097.0
63.540541893,2078.0
63.557253162,2098.0
63.573964431,2087.0
63.590675700,2014.0
63.607386969,2210.0
63.624098238,2167.0
63.640809507,2019.0
63.657520776,2085.0
63.674232045,2048.0
63.690943314,2111.0
63.707654583,2058.0
63.724365852,2115.0
63.741077121,2140.0
63.757788390,2073.0
63.774499659,2051.0
63.791210928,2181.0
63.807922197,2088.0
63.824633466,2171.0
63.841344735,2080.0
63.858056004,2045.0
63.874767273,2026.0
63.891478542,2013.0
63.908189811,2136.0
63.924901080,2069.0
63.941612349,2102.0
63.958323618,2051.0
63.975034887,1989.0
63.991746156,2114.0
64.008457425,2092.0
64.025168694,2063.0
64.041879963,2090.0
64.058591232,2023.0
64.075302501,2099.0
64.092013770,2015.0
64.108725039,2060.0
64.125436308,2188.0
64.142147577,2023.0
64.158858846,2091.0
64.175570115,2155.0
64.192281383,2089.0
64.208992652,2119.0
64.225703921,2127.0
64.242415190,2000.0
64.259126459,2139.0
64.275837728,2185.0
64.292548997,2106.0
64.309260266,2070.0
64.325971535,2105.0
64.342682804,2027.0
64.359394073,2063.0
64.376105342,2023.0
64.392816611,2178.0
64.409527880,2109.0
64.426239149,2082.0
64.442950418,2102.0
64.459661687,2113.0
64.476372956,2011.0
64.493084225,2036.0
64.509795494,2141.0
64.526506763,2232.0
64.543218032,2086.0
64.559929301,2015.0
64.576640570,2047.0
64.593351839,2058.0
64.610063108,2108.0
64.626774377,2119.0
64.643485646,2089.0
64.660196915,2023.0
64.676908184,2150.0
64.693619453,2084.0
64.710330722,2128.0
64.727041991,2144.0
64.743753260,2123.0
64.760464529,2046.0
64.777175798,2125.0
64.793887067,2039.0
64.810598336,2102.0
64.827309605,2096.0
64.844020874,2101.0
64.860732143,2169.0
64.877443412,2110.0
64.894154681,2037.0
64.910865950,2134.0
64.927577219,2112.0
64.944288487,2051.0
64.960999756,2135.0
64.977711025,2066.0
64.994422294,2143.0
65.011133563,2154.0
65.027844832,2226.0
65.044556101,2099.0
65.061267370,2125.0
65.077978639,2142.0
65.094689908,2053.0
65.111401177,2148.0
65.128112446,2075.0
65.144823715,2175.0
65.161534984,2121.0
65.178246253,2162.0
65.194957522,2106.0
65.211668791,2112.0
65.228380060,2092.0
65.245091329,2194.0
65.261802598,2245.0
65.278513867,2147.0
65.295225136,2188.0
65.311936405,2131.0
65.328647674,2054.0
65.345358943,2235.0
65.362070212,2093.0
65.378781481,2156.0
65.395492750,2136.0
65.412204019,2156.0
65.428915288,2114.0
65.445626557,2265.0
65.462337826,2245.0
65.479049095,2101.0
65.495760364,2064.0
65.512471633,2208.0
65.529182902,2135.0
65.545894171,2100.0
65.562605440,2195.0
65.579316709,2138.0
65.596027978,2123.0
65.612739247,2162.0
65.629450516,2181.0
65.646161785,2124.0
65.662873054,2030.0
65.679584323,2197.0
65.696295592,2194.0
65.713006860,2208.0
65.729718129,2154.0
65.746429398,2174.0
65.763140667,2187.0
65.779851936,2110.0
65.796563205,2173.0
65.813274474,2158.0
65.829985743,2188.0
65.846697012,2150.0
65.863408281,2137.0
65.880119550,2230.0
65.896830819,2081.0
65.913542088,2167.0
65.930253357,2075.0
65.946964626,2224.0
65.963675895,2135.0
65.980387164,2211.0
65.997098433,2127.0
66.013809702,2172.0
66.030520971,2148.0
66.047232240,2227.0
66.063943509,2152.0
66.080654778,2194.0
66.097366047,2210.0
66.114077316,2214.0
66.130788585,2115.0
66.147499854,2115.0
66.164211123,2149.0
66.180922392,2175.0
66.197633661,2162.0
66.214344930,2260.0
66.231056199,2134.0
66.247767468,2224.0
66.264478737,2234.0
66.281190006,2128.0
66.297901275,2149.0
66.314612544,2159.0
66.331323813,2191.0
66.348035082,2153.0
66.364746351,2210.0
66.381457620,2168.0
66.398168889,2216.0
66.414880158,2179.0
66.431591427,2161.0
66.448302696,2200.0
66.465013964,2158.0
66.481725233,2265.0
66.498436502,2226.0
66.515147771,2122.0
66.531859040,2218.0
66.548570309,2103.0
66.565281578,2265.0
66.581992847,2125.0
66.598704116,2239.0
66.615415385,2198.0
66.632126654,2206.0
66.648837923,2171.0
66.665549192,2128.0
66.682260461,2222.0
66.698971730,2213.0
66.715682999,2185.0
66.732394268,2207.0
66.749105537,2209.0
66.765816806,2204.0
66.782528075,2149.0
66.799239344,2200.0
66.815950613,2222.0
66.832661882,2235.0
66.849373151,2102.0
66.866084420,2165.0
66.882795689,2165.0
66.899506958,2125.0
66.916218227,2187.0
66.932929496,2257.0
66.949640765,2150.0
66.966352034,2177.0
66.983063303,2295.0
66.999774572,2222.0
67.016485841,2205.0
67.033197110,2122.0
67.049908379,2250.0
67.066619648,2159.0
67.083330917,2307.0
67.100042186,2246.0
67.116753455,2216.0
67.133464724,2243.0
67.150175993,2160.0
67.166887262,2208.0
67.183598531,2165.0
67.200309800,2241.0
67.217021069,2256.0
67.233732337,2296.0
67.250443606,2161.0
67.267154875,2214.0
67.283866144,2263.0
67.300577413,2159.0
67.317288682,2278.0
67.333999951,2113.0
67.350711220,2161.0
67.367422489,2209.0
67.384133758,2198.0
67.400845027,2225.0
67.417556296,2209.0
67.434267565,2198.0
67.450978834,2206.0
67.467690103,2204.0
67.484401372,2247.0
67.501112641,2225.0
67.517823910,2230.0
67.534535179,2286.0
67.551246448,2097.0
67.567957717,2266.0
67.584668986,2189.0
67.601380255,2133.0
67.618091524,2175.0
67.634802793,2321.0
67.651514062,2193.0
67.668225331,2176.0
67.684936600,2112.0
67.701647869,2231.0
67.718359138,2181.0
67.735070407,2263.0
67.751781676,2181.0
67.768492945,2180.0
67.785204214,2208.0
67.801915483,2230.0
67.818626752,2183.0
67.835338021,2201.0
67.852049290,2266.0
67.868760559,2185.0
67.885471828,2213.0
67.902183097,2205.0
67.918894366,2224.0
67.935605635,2248.0
67.952316904,2197.0
67.969028173,2087.0
67.985739441,2268.0
68.002450710,2169.0
68.019161979,2131.0
68.035873248,2213.0
68.052584517,2212.0
68.069295786,2213.0
68.086007055,2231.0
68.102718324,2249.0
68.119429593,2285.0
68.136140862,2238.0
68.152852131,2282.0
68.169563400,2255.0
68.186274669,2153.0
68.202985938,2301.0
68.219697207,2184.0
68.236408476,2088.0
68.253119745,2237.0
68.269831014,2150.0
68.286542283,2234.0
68.303253552,2282.0
68.319964821,2183.0
68.336676090,2182.0
68.353387359,2172.0
68.370098628,2166.0
68.386809897,2166.0
68.403521166,2239.0
68.420232435,2243.0
68.436943704,2216.0
68.453654973,2305.0
68.470366242,2150.0
68.487077511,2169.0
68.503788780,2279.0
68.520500049,2153.0
68.537211318,2179.0
68.553922587,2168.0
68.570633856,2213.0
68.587345125,2156.0
68.604056394,2216.0
68.620767663,2120.0
68.637478932,2153.0
68.654190201,2195.0
68.670901470,2122.0
68.687612739,2246.0
68.704324008,2169.0
68.721035277,2174.0
68.737746546,2124.0
68.754457814,2281.0
68.771169083,2175.0
68.787880352,2189.0
68.804591621,2254.0
68.821302890,2111.0
68.838014159,2179.0
68.854725428,2104.0
68.871436697,2143.0
68.888147966,2166.0
68.904859235,2125.0
68.921570504,2214.0
68.938281773,2184.0
68.954993042,2194.0
68.971704311,2165.0
68.988415580,2211.0
69.005126849,2267.0
69.021838118,2154.0
69.038549387,2267.0
69.055260656,2168.0
69.071971925,2267.0
69.088683194,2242.0
69.105394463,2273.0
69.122105732,2170.0
69.138817001,2175.0
69.155528270,2225.0
69.172239539,2152.0
69.188950808,2188.0
69.205662077,2128.0
69.222373346,2283.0
69.239084615,2198.0
69.255795884,2186.0
69.272507153,2142.0
69.289218422,2164.0
69.305929691,2264.0
69.322640960,2189.0
69.339352229,2213.0
69.356063498,2166.0
69.372774767,2212.0
69.389486036,2158.0
69.406197305,2223.0
69.422908574,2208.0
69.439619843,2130.0
69.456331112,2116.0
69.473042381,2166.0
69.489753650,2131.0
69.506464919,2201.0
69.523176187,2148.0
69.539887456,2156.0
69.556598725,2183.0
69.573309994,2199.0
69.590021263,2079.0
69.606732532,2195.0
69.623443801,2211.0
69.640155070,2165.0
69.656866339,2222.0
69.673577608,2206.0
69.690288877,2215.0
69.707000146,2134.0
69.723711415,2067.0
69.740422684,2219.0
69.757133953,2148.0
69.773845222,2057.0
69.790556491,2113.0
69.807267760,2147.0
69.823979029,2141.0
69.840690298,2168.0
69.857401567,2131.0
69.874112836,2086.0
69.890824105,2175.0
69.907535374,2186.0
69.924246643,2149.0
69.940957912,2154.0
69.957669181,2129.0
69.974380450,2142.0
69.991091719,2148.0
70.007802988,2105.0
70.024514257,2116.0
70.041225526,2149.0
70.057936795,2118.0
70.074648064,2069.0
70.091359333,2143.0
70.108070602,2106.0
70.124781871,2203.0
70.141493140,2114.0
70.158204409,2145.0
70.174915678,2154.0
70.191626947,2088.0
70.208338216,2149.0
70.225049485,2147.0
70.241760754,2063.0
70.258472023,2181.0
70.275183291,2113.0
70.291894560,2165.0
70.308605829,2197.0
70.325317098,2137.0
70.342028367,2101.0
70.358739636,2179.0
70.375450905,2120.0
70.392162174,2122.0
70.408873443,2145.0
70.425584712,2157.0
70.442295981,2059.0
70.459007250,2147.0
70.475718519,2146.0
70.492429788,2161.0
70.509141057,2100.0
70.525852326,2139.0
70.542563595,2116.0
70.559274864,2046.0
70.575986133,2161.0
70.592697402,2084.0
70.609408671,2065.0
70.626119940,2101.0
70.642831209,2208.0
70.659542478,2086.0
70.676253747,2136.0
70.692965016,2202.0
70.709676285,2059.0
70.726387554,2061.0
70.743098823,2169.0
70.759810092,2057.0
70.776521361,2098.0
70.793232630,2045.0
70.809943899,2139.0
70.826655168,2109.0
70.843366437,2024.0
70.860077706,2084.0
70.876788975,2116.0
70.893500244,2134.0
70.910211513,2186.0
70.926922782,2127.0
70.943634051,2076.0
70.960345320,2083.0
70.977056589,2072.0
70.993767858,2099.0
71.010479127,1996.0
71.027190396,2075.0
71.043901664,2008.0
71.060612933,2095.0
71.077324202,2033.0
71.094035471,2089.0
71.110746740,2140.0
71.127458009,2119.0
71.144169278,2078.0
71.160880547,2007.0
71.177591816,2101.0
71.194303085,2109.0
71.211014354,2093.0
71.227725623,2104.0
71.244436892,2214.0
71.261148161,2082.0
71.277859430,2059.0
71.294570699,2042.0
71.311281968,2101.0
71.327993237,2121.0
71.344704506,2046.0
71.361415775,1998.0
71.378127044,2115.0
71.394838313,2121.0
71.411549582,2058.0
71.428260851,2140.0
71.444972120,2075.0
71.461683389,2025.0
71.478394658,2039.0
71.495105927,2121.0
71.511817196,1985.0
71.528528465,2029.0
71.545239734,2045.0
71.561951003,2071.0
71.578662272,2103.0
71.595373541,2025.0
71.612084810,2042.0
71.628796079,2062.0
71.645507348,2059.0
71.662218617,2068.0
71.678929886,1941.0
71.695641155,2094.0
71.712352424,2013.0
71.729063693,2035.0
71.745774962,1997.0
71.762486231,1996.0
71.779197500,2072.0
71.795908768,2016.0
71.812620037,2073.0
71.829331306,1974.0
71.846042575,2045.0
71.862753844,2061.0
71.879465113,2058.0
71.896176382,2044.0
71.912887651,2030.0
71.929598920,2000.0
71.946310189,2029.0
71.963021458,2027.0
71.979732727,2009.0
71.996443996,1979.0
72.013155265,2006.0
72.029866534,1997.0
72.046577803,2054.0
72.063289072,2004.0
72.080000341,2000.0
72.096711610,2014.0
72.113422879,2058.0
72.130134148,2001.0
72.146845417,1989.0
72.163556686,1910.0
72.180267955,1996.0
72.196979224,1968.0
72.213690493,2023.0
72.230401762,1960.0
72.247113031,1922.0
72.263824300,2009.0
72.280535569,1947.0
72.297246838,2013.0
72.313958107,1912.0
72.330669376,1976.0
72.347380645,2050.0
72.364091914,2008.0
72.380803183,2019.0
72.397514452,2031.0
72.414225721,1979.0
72.430936990,2027.0
72.447648259,1999.0
72.464359528,1967.0
72.481070797,2018.0
72.497782066,2009.0
72.514493335,1875.0
72.531204604,1982.0
72.547915873,1994.0
72.564627141,2065.0
72.581338410,1983.0
72.598049679,1988.0
72.614760948,2068.0
72.631472217,2053.0
72.648183486,2000.0
72.664894755,1992.0
72.681606024,1867.0
72.698317293,1927.0
72.715028562,1987.0
72.731739831,1922.0
72.748451100,1976.0
72.765162369,1911.0
72.781873638,2031.0
72.798584907,1996.0
72.815296176,1967.0
72.832007445,2027.0
72.848718714,2008.0
72.865429983,1963.0
72.882141252,1938.0
72.898852521,2002.0
72.915563790,1948.0
72.932275059,1988.0
72.948986328,1977.0
72.965697597,1927.0
72.982408866,1919.0
72.999120135,2055.0
73.015831404,2031.0
73.032542673,1987.0
73.049253942,2067.0
73.065965211,2064.0
73.082676480,1946.0
73.099387749,1943.0
73.116099018,1893.0
73.132810287,1994.0
73.149521556,2057.0
73.166232825,1904.0
73.182944094,2000.0
73.199655363,1961.0
73.216366632,1929.0
73.233077901,1950.0
73.249789170,1984.0
73.266500439,1964.0
73.283211708,1938.0
73.299922977,1877.0
73.316634245,1871.0
73.333345514,1925.0
73.350056783,1906.0
73.366768052,1870.0
73.383479321,1952.0
73.400190590,1980.0
73.416901859,1959.0
73.433613128,1992.0
73.450324397,2009.0
73.467035666,1912.0
73.483746935,1921.0
73.500458204,1847.0
73.517169473,1952.0
73.533880742,1953.0
73.550592011,1976.0
73.567303280,1955.0
73.584014549,1983.0
73.600725818,1922.0
73.617437087,2018.0
73.634148356,1925.0
73.650859625,1936.0
73.667570894,1897.0
73.684282163,1903.0
73.700993432,1882.0
73.717704701,1868.0
73.734415970,1911.0
73.751127239,1873.0
73.767838508,1954.0
73.784549777,1843.0
73.801261046,1867.0
73.817972315,1841.0
73.834683584,1983.0
73.851394853,1839.0
73.868106122,1881.0
73.884817391,1929.0
73.901528660,1932.0
73.918239929,1875.0
73.934951198,1906.0
73.951662467,1950.0
73.968373736,1896.0
73.985085005,1880.0
74.001796274,1900.0
74.018507543,1948.0
74.035218812,1886.0
74.051930081,1904.0
74.068641350,1862.0
74.085352618,1924.0
74.102063887,1852.0
74.118775156,1937.0
74.135486425,2009.0
74.152197694,1913.0
74.168908963,1895.0
74.185620232,1865.0
74.202331501,1904.0
74.219042770,1874.0
74.235754039,1905.0
74.252465308,1993.0
74.269176577,1868.0
74.285887846,1949.0
74.302599115,1933.0
74.319310384,1989.0
74.336021653,1962.0
74.352732922,1966.0
74.369444191,1964.0
74.386155460,2061.0
74.402866729,1930.0
74.419577998,1987.0
74.436289267,1869.0
74.453000536,1940.0
74.469711805,1934.0
74.486423074,1931.0
74.503134343,1921.0
74.519845612,1935.0
74.536556881,1984.0
74.553268150,1973.0
74.569979419,1897.0
74.586690688,1957.0
74.603401957,1886.0
74.620113226,2007.0
74.636824495,1911.0
74.653535764,1903.0
74.670247033,1891.0
74.686958302,2018.0
74.703669571,1940.0
74.720380840,1933.0
74.737092109,2051.0
74.753803378,1977.0
74.770514647,1996.0
74.787225916,1973.0
74.803937185,1951.0
74.820648454,1954.0
74.837359722,2022.0
74.854070991,1975.0
74.870782260,2006.0
74.887493529,1997.0
74.904204798,2001.0
74.920916067,2048.0
74.937627336,1975.0
74.954338605,1956.0
74.971049874,2034.0
74.987761143,2106.0
75.004472412,1925.0
75.021183681,1994.0
75.037894950,1942.0
75.054606219,1991.0
75.071317488,2097.0
75.088028757,1956.0
75.104740026,1970.0
75.121451295,1937.0
75.138162564,2028.0
75.154873833,1949.0
75.171585102,2022.0
75.188296371,2018.0
75.205007640,1892.0
75.221718909,1983.0
75.238430178,1926.0
75.255141447,1960.0
75.271852716,2001.0
75.288563985,2036.0
75.305275254,1950.0
75.321986523,2046.0
75.338697792,2060.0
75.355409061,1940.0
75.372120330,1978.0
75.388831599,1913.0
75.405542868,2110.0
75.422254137,2034.0
75.438965406,2018.0
75.455676675,2006.0
75.472387944,2025.0
75.489099213,2073.0
75.505810482,2011.0
75.522521751,2030.0
75.539233020,2095.0
75.555944289,2103.0
75.572655558,2136.0
75.589366827,2099.0
75.606078095,2029.0
75.622789364,2182.0
75.639500633,2156.0
75.656211902,2143.0
75.672923171,2100.0
75.689634440,2153.0
75.706345709,2157.0
75.723056978,2184.0
75.739768247,2215.0
75.756479516,2120.0
75.773190785,2123.0
75.789902054,2158.0
75.806613323,2060.0
75.823324592,2088.0
75.840035861,2070.0
75.856747130,2058.0
75.873458399,2045.0
75.890169668,2002.0
75.906880937,2053.0
75.923592206,1978.0
75.940303475,1947.0
75.957014744,1962.0
75.973726013,1966.0
75.990437282,1968.0
76.007148551,1999.0
76.023859820,2059.0
76.040571089,1857.0
76.057282358,1859.0
76.073993627,1933.0
76.090704896,1888.0
76.107416165,1844.0
76.124127434,1799.0
76.140838703,1843.0
76.157549972,1825.0
76.174261241,1829.0
76.190972510,1726.0
76.207683779,1797.0
76.224395048,1840.0
76.241106317,1803.0
76.257817586,1746.0
76.274528855,1748.0
76.291240124,1736.0
76.307951393,1842.0
76.324662662,1750.0
76.341373931,1780.0
76.358085199,1786.0
76.374796468,1787.0
76.391507737,1721.0
76.408219006,1750.0
76.424930275,1679.0
76.441641544,1795.0
76.458352813,1755.0
76.475064082,1802.0
76.491775351,1729.0
76.508486620,1804.0
76.525197889,1830.0
76.541909158,1785.0
76.558620427,1733.0
76.575331696,1743.0
76.592042965,1793.0
76.608754234,1735.0
76.625465503,1735.0
76.642176772,1765.0
76.658888041,1715.0
76.675599310,1711.0
76.692310579,1749.0
76.709021848,1765.0
76.725733117,1798.0
76.742444386,1713.0
76.759155655,1715.0
76.775866924,1683.0
76.792578193,1705.0
76.809289462,1721.0
76.826000731,1676.0
76.842712000,1669.0
76.859423269,1704.0
76.876134538,1708.0
76.892845807,1732.0
76.909557076,1786.0
76.926268345,1686.0
76.942979614,1733.0
76.959690883,1696.0
76.976402152,1728.0
76.993113421,1673.0
77.009824690,1659.0
77.026535959,1712.0
77.043247228,1690.0
77.059958497,1656.0
77.076669766,1757.0
77.093381035,1728.0
77.110092304,1675.0
77.126803572,1649.0
77.143514841,1757.0
77.160226110,1689.0
77.176937379,1711.0
77.193648648,1681.0
77.210359917,1744.0
77.227071186,1692.0
77.243782455,1681.0
77.260493724,1755.0
77.277204993,1707.0
77.293916262,1748.0
77.310627531,1718.0
77.327338800,1756.0
77.344050069,1661.0
77.360761338,1598.0
77.377472607,1705.0
77.394183876,1674.0
77.410895145,1724.0
77.427606414,1726.0
77.444317683,1738.0
77.461028952,1726.0
77.477740221,1725.0
77.494451490,1642.0
77.511162759,1706.0
77.527874028,1744.0
77.544585297,1738.0
77.561296566,1659.0
77.578007835,1628.0
77.594719104,1629.0
77.611430373,1646.0
77.628141642,1723.0
77.644852911,1671.0
77.661564180,1748.0
77.678275449,1703.0
77.694986718,1710.0
77.711697987,1704.0
77.728409256,1737.0
77.745120525,1787.0
77.761831794,1723.0
77.778543063,1718.0
77.795254332,1717.0
77.811965601,1614.0
77.828676870,1630.0
77.845388139,1653.0
77.862099408,1681.0
77.878810676,1679.0
77.895521945,1671.0
77.912233214,1636.0
77.928944483,1639.0
77.945655752,1631.0
77.962367021,1714.0
77.979078290,1618.0
77.995789559,1698.0
78.012500828,1673.0
78.029212097,1681.0
78.045923366,1657.0
78.062634635,1658.0
78.079345904,1586.0
78.096057173,1691.0
78.112768442,1726.0
78.129479711,1697.0
78.146190980,1695.0
78.162902249,1657.0
78.179613518,1692.0
78.196324787,1584.0
78.213036056,1723.0
78.229747325,1663.0
78.246458594,1737.0
78.263169863,1654.0
78.279881132,1692.0
78.296592401,1698.0
78.313303670,1672.0
78.330014939,1722.0
78.346726208,1728.0
78.363437477,1673.0
78.380148746,1650.0
78.396860015,1658.0
78.413571284,1701.0
78.430282553,1661.0
78.446993822,1682.0
78.463705091,1730.0
78.480416360,1716.0
78.497127629,1656.0
78.513838898,1703.0
78.530550167,1738.0
78.547261436,1716.0
78.563972705,1705.0
78.580683974,1730.0
78.597395243,1728.0
78.614106512,1809.0
78.630817781,1679.0
78.647529049,1700.0
78.664240318,1702.0
78.680951587,1733.0
78.697662856,1753.0
78.714374125,1682.0
78.731085394,1762.0
78.747796663,1723.0
78.764507932,1685.0
78.781219201,1696.0
78.797930470,1737.0
78.814641739,1662.0
78.831353008,1745.0
78.848064277,1780.0
78.864775546,1718.0
78.881486815,1718.0
78.898198084,1772.0
78.914909353,1742.0
78.931620622,1697.0
78.948331891,1671.0
78.965043160,1727.0
78.981754429,1688.0
78.998465698,1711.0
79.015176967,1743.0
79.031888236,1632.0
79.048599505,1755.0
79.065310774,1691.0
79.082022043,1684.0
79.098733312,1714.0
79.115444581,1729.0
79.132155850,1671.0
79.148867119,1703.0
79.165578388,1696.0
79.182289657,1692.0
79.199000926,1618.0
79.215712195,1641.0
79.232423464,1656.0
79.249134733,1614.0
79.265846002,1627.0
79.282557271,1633.0
79.299268540,1717.0
79.315979809,1647.0
79.332691078,1655.0
79.349402347,1614.0
79.366113616,1607.0
79.382824885,1689.0
79.399536153,1654.0
79.416247422,1617.0
79.432958691,1653.0
79.449669960,1561.0
79.466381229,1652.0
79.483092498,1719.0
79.499803767,1518.0
79.516515036,1666.0
79.533226305,1604.0
79.549937574,1707.0
79.566648843,1641.0
79.583360112,1667.0
79.600071381,1599.0
79.616782650,1558.0
79.633493919,1642.0
79.650205188,1608.0
79.666916457,1628.0
79.683627726,1671.0
79.700338995,1562.0
79.717050264,1607.0
79.733761533,1533.0
79.750472802,1555.0
79.767184071,1628.0
79.783895340,1583.0
79.800606609,1567.0
79.817317878,1589.0
79.834029147,1624.0
79.850740416,1571.0
79.867451685,1565.0
79.884162954,1671.0
79.900874223,1600.0
79.917585492,1535.0
79.934296761,1555.0
79.951008030,1594.0
79.967719299,1594.0
79.984430568,1604.0
80.001141837,1576.0
80.017853106,1588.0
80.034564375,1677.0
80.051275644,1551.0
80.067986913,1543.0
80.084698182,1608.0
80.101409451,1510.0
80.118120720,1653.0
80.134831989,1611.0
80.151543258,1594.0
80.168254526,1635.0
80.184965795,1515.0
80.201677064,1605.0
80.218388333,1651.0
80.235099602,1624.0
80.251810871,1546.0
80.268522140,1650.0
80.285233409,1595.0
80.301944678,1546.0
80.318655947,1564.0
80.335367216,1573.0
80.352078485,1597.0
80.368789754,1565.0
80.385501023,1595.0
80.402212292,1583.0
80.418923561,1511.0
80.435634830,1600.0
80.452346099,1581.0
80.469057368,1637.0
80.485768637,1475.0
80.502479906,1556.0
80.519191175,1522.0
80.535902444,1590.0
80.552613713,1511.0
80.569324982,1530.0
80.586036251,1647.0
80.602747520,1595.0
80.619458789,1554.0
80.636170058,1581.0
80.652881327,1550.0
80.669592596,1527.0
80.686303865,1553.0
80.703015134,1587.0
80.719726403,1512.0
80.736437672,1554.0
80.753148941,1517.0
80.769860210,1581.0
80.786571479,1553.0
80.803282748,1535.0
80.819994017,1580.0
80.836705286,1543.0
80.853416555,1521.0
80.870127824,1525.0
80.886839093,1576.0
80.903550362,1537.0
80.920261630,1461.0
80.936972899,1451.0
80.953684168,1552.0
80.970395437,1505.0
80.987106706,1489.0
81.003817975,1485.0
81.020529244,1507.0
81.037240513,1496.0
81.053951782,1550.0
81.070663051,1587.0
81.087374320,1511.0
81.104085589,1578.0
81.120796858,1466.0
81.137508127,1580.0
81.154219396,1623.0
81.170930665,1542.0
81.187641934,1531.0
81.204353203,1529.0
81.221064472,1589.0
81.237775741,1527.0
81.254487010,1484.0
81.271198279,1543.0
81.287909548,1526.0
81.304620817,1496.0
81.321332086,1495.0
81.338043355,1465.0
81.354754624,1525.0
81.371465893,1510.0
81.388177162,1503.0
81.404888431,1495.0
81.421599700,1603.0
81.438310969,1516.0
81.455022238,1522.0
81.471733507,1517.0
81.488444776,1536.0
81.505156045,1494.0
81.521867314,1512.0
81.538578583,1475.0
81.555289852,1548.0
81.572001121,1490.0
81.588712390,1443.0
81.605423659,1499.0
81.622134928,1488.0
81.638846197,1555.0
81.655557466,1534.0
81.672268735,1540.0
81.688980003,1526.0
81.705691272,1566.0
81.722402541,1521.0
81.739113810,1575.0
81.755825079,1577.0
81.772536348,1436.0
81.789247617,1550.0
81.805958886,1509.0
81.822670155,1563.0
81.839381424,1523.0
81.856092693,1529.0
81.872803962,1490.0
81.889515231,1513.0
81.906226500,1548.0
81.922937769,1534.0
81.939649038,1543.0
81.956360307,1525.0
81.973071576,1488.0
81.989782845,1459.0
82.006494114,1581.0
82.023205383,1506.0
82.039916652,1504.0
82.056627921,1457.0
82.073339190,1521.0
82.090050459,1517.0
82.106761728,1539.0
82.123472997,1439.0
82.140184266,1482.0
82.156895535,1543.0
82.173606804,1525.0
82.190318073,1480.0
82.207029342,1524.0
82.223740611,1512.0
82.240451880,1537.0
82.257163149,1542.0
82.273874418,1522.0
82.290585687,1512.0
82.307296956,1545.0
82.324008225,1482.0
82.340719494,1533.0
82.357430763,1457.0
82.374142032,1481.0
82.390853301,1528.0
82.407564570,1459.0
82.424275839,1581.0
82.440987107,1522.0
82.457698376,1477.0
82.474409645,1520.0
82.491120914,1535.0
82.507832183,1493.0
82.524543452,1478.0
82.541254721,1456.0
82.557965990,1466.0
82.574677259,1549.0
82.591388528,1490.0
82.608099797,1468.0
82.624811066,1558.0
82.641522335,1506.0
82.658233604,1525.0
82.674944873,1490.0
82.691656142,1463.0
82.708367411,1527.0
82.725078680,1556.0
82.741789949,1477.0
82.758501218,1564.0
82.775212487,1560.0
82.791923756,1561.0
82.808635025,1515.0
82.825346294,1493.0
82.842057563,1447.0
82.858768832,1490.0
82.875480101,1474.0
82.892191370,1455.0
82.908902639,1431.0
82.925613908,1489.0
82.942325177,1484.0
82.959036446,1422.0
82.975747715,1549.0
82.992458984,1509.0
83.009170253,1482.0
83.025881522,1451.0
83.042592791,1459.0
83.059304060,1511.0
83.076015329,1519.0
83.092726598,1492.0
83.109437867,1507.0
83.126149136,1510.0
83.142860405,1477.0
83.159571674,1447.0
83.176282943,1495.0
83.192994212,1495.0
83.209705480,1527.0
83.226416749,1519.0
83.243128018,1461.0
83.259839287,1525.0
83.276550556,1460.0
83.293261825,1446.0
83.309973094,1476.0
83.326684363,1520.0
83.343395632,1420.0
83.360106901,1522.0
83.376818170,1496.0
83.393529439,1476.0
83.410240708,1464.0
83.426951977,1511.0
83.443663246,1429.0
83.460374515,1450.0
83.477085784,1470.0
83.493797053,1515.0
83.510508322,1504.0
83.527219591,1446.0
83.543930860,1484.0
83.560642129,1427.0
83.577353398,1461.0
83.594064667,1480.0
83.610775936,1432.0
83.627487205,1440.0
83.644198474,1504.0
83.660909743,1487.0
83.677621012,1471.0
83.694332281,1469.0
83.711043550,1464.0
83.727754819,1492.0
83.744466088,1520.0
83.761177357,1451.0
83.777888626,1485.0
83.794599895,1536.0
83.811311164,1422.0
83.828022433,1538.0
83.844733702,1410.0
83.861444971,1389.0
83.878156240,1485.0
83.894867509,1445.0
83.911578778,1413.0
83.928290047,1447.0
83.945001316,1427.0
83.961712584,1481.0
83.978423853,1460.0
83.995135122,1513.0
84.011846391,1453.0
84.028557660,1468.0
84.045268929,1458.0
84.061980198,1483.0
84.078691467,1511.0
84.095402736,1437.0
84.112114005,1528.0
84.128825274,1466.0
84.145536543,1396.0
84.162247812,1471.0
84.178959081,1390.0
84.195670350,1466.0
84.212381619,1461.0
84.229092888,1561.0
84.245804157,1478.0
84.262515426,1472.0
84.279226695,1422.0
84.295937964,1408.0
84.312649233,1450.0
84.329360502,1426.0
84.346071771,1527.0
84.362783040,1474.0
84.379494309,1486.0
84.396205578,1501.0
84.412916847,1404.0
84.429628116,1457.0
84.446339385,1540.0
84.463050654,1505.0
84.479761923,1443.0
84.496473192,1414.0
84.513184461,1459.0
84.529895730,1468.0
84.546606999,1504.0
84.563318268,1507.0
84.580029537,1401.0
84.596740806,1470.0
84.613452075,1382.0
84.630163344,1466.0
84.646874613,1360.0
84.663585882,1478.0
84.680297151,1491.0
84.697008420,1432.0
84.713719689,1415.0
84.730430957,1472.0
84.747142226,1503.0
84.763853495,1477.0
84.780564764,1461.0
84.797276033,1432.0
84.813987302,1395.0
84.830698571,1416.0
84.847409840,1338.0
84.864121109,1392.0
84.880832378,1430.0
84.897543647,1454.0
84.914254916,1385.0
84.930966185,1439.0
84.947677454,1455.0
84.964388723,1518.0
84.981099992,1450.0
84.997811261,1493.0
85.014522530,1413.0
85.031233799,1425.0
85.047945068,1428.0
85.064656337,1504.0
85.081367606,1457.0
85.098078875,1477.0
85.114790144,1415.0
85.131501413,1386.0
85.148212682,1385.0
85.164923951,1426.0
85.181635220,1572.0
85.198346489,1492.0
85.215057758,1412.0
85.231769027,1454.0
85.248480296,1435.0
85.265191565,1487.0
85.281902834,1465.0
85.298614103,1452.0
85.315325372,1453.0
85.332036641,1453.0
85.348747910,1421.0
85.365459179,1398.0
85.382170448,1432.0
85.398881717,1383.0
85.415592986,1476.0
85.432304255,1412.0
85.449015524,1410.0
85.465726793,1567.0
85.482438061,1397.0
85.499149330,1424.0
85.515860599,1457.0
85.532571868,1482.0
85.549283137,1407.0
85.565994406,1429.0
85.582705675,1524.0
85.599416944,1489.0
85.616128213,1432.0
85.632839482,1435.0
85.649550751,1399.0
85.666262020,1462.0
85.682973289,1448.0
85.699684558,1426.0
85.716395827,1453.0
85.733107096,1375.0
85.749818365,1407.0
85.766529634,1351.0
85.783240903,1443.0
85.799952172,1440.0
85.816663441,1392.0
85.833374710,1434.0
85.850085979,1423.0
85.866797248,1435.0
85.883508517,1493.0
85.900219786,1416.0
85.916931055,1370.0
85.933642324,1406.0
85.950353593,1441.0
85.967064862,1431.0
85.983776131,1479.0
86.000487400,1482.0
86.017198669,1461.0
86.033909938,1494.0
86.050621207,1404.0
86.067332476,1421.0
86.084043745,1377.0
86.100755014,1466.0
86.117466283,1399.0
86.134177552,1401.0
86.150888821,1357.0
86.167600090,1422.0
86.184311359,1485.0
86.201022628,1434.0
86.217733897,1416.0
86.234445166,1432.0
86.251156434,1380.0
86.267867703,1461.0
86.284578972,1393.0
86.301290241,1414.0
86.318001510,1393.0
86.334712779,1466.0
86.351424048,1393.0
86.368135317,1467.0
86.384846586,1506.0
86.401557855,1358.0
86.418269124,1456.0
86.434980393,1361.0
86.451691662,1359.0
86.468402931,1401.0
86.485114200,1441.0
86.501825469,1400.0
86.518536738,1419.0
86.535248007,1450.0
86.551959276,1419.0
86.568670545,1373.0
86.585381814,1412.0
86.602093083,1470.0
86.618804352,1422.0
86.635515621,1366.0
86.652226890,1384.0
86.668938159,1396.0
86.685649428,1380.0
86.702360697,1382.0
86.719071966,1377.0
86.735783235,1437.0
86.752494504,1393.0
86.769205773,1434.0
86.785917042,1369.0
86.802628311,1422.0
86.819339580,1420.0
86.836050849,1441.0
86.852762118,1356.0
86.869473387,1456.0
86.886184656,1459.0
86.902895925,1357.0
86.919607194,1415.0
86.936318463,1347.0
86.953029732,1367.0
86.969741001,1388.0
86.986452270,1409.0
87.003163539,1419.0
87.019874807,1477.0
87.036586076,1454.0
87.053297345,1446.0
87.070008614,1434.0
87.086719883,1455.0
87.103431152,1413.0
87.120142421,1420.0
87.136853690,1507.0
87.153564959,1393.0
87.170276228,1401.0
87.186987497,1407.0
87.203698766,1431.0
87.220410035,1402.0
87.237121304,1395.0
87.253832573,1372.0
87.270543842,1392.0
87.287255111,1419.0
87.303966380,1364.0
87.320677649,1413.0
87.337388918,1422.0
87.354100187,1376.0
87.370811456,1420.0
87.387522725,1399.0
87.404233994,1389.0
87.420945263,1447.0
87.437656532,1357.0
87.454367801,1428.0
87.471079070,1428.0
87.487790339,1412.0
87.504501608,1450.0
87.521212877,1433.0
87.537924146,1413.0
87.554635415,1413.0
87.571346684,1421.0
87.588057953,1365.0
87.604769222,1365.0
87.621480491,1334.0
87.638191760,1446.0
87.654903029,1388.0
87.671614298,1345.0
87.688325567,1450.0
87.705036836,1361.0
87.721748105,1392.0
87.738459374,1378.0
87.755170643,1404.0
87.771881911,1334.0
87.788593180,1347.0
87.805304449,1383.0
87.822015718,1450.0
87.838726987,1387.0
87.855438256,1358.0
87.872149525,1401.0
87.888860794,1424.0
87.905572063,1419.0
87.922283332,1353.0
87.938994601,1349.0
87.955705870,1425.0
87.972417139,1359.0
87.989128408,1380.0
88.005839677,1394.0
88.022550946,1336.0
88.039262215,1338.0
88.055973484,1366.0
88.072684753,1416.0
88.089396022,1411.0
88.106107291,1412.0
88.122818560,1343.0
88.139529829,1446.0
88.156241098,1376.0
88.172952367,1456.0
88.189663636,1391.0
88.206374905,1417.0
88.223086174,1462.0
88.239797443,1439.0
88.256508712,1376.0
88.273219981,1333.0
88.289931250,1380.0
88.306642519,1382.0
88.323353788,1388.0
88.340065057,1426.0
88.356776326,1389.0
88.373487595,1392.0
88.390198864,1389.0
88.406910133,1370.0
88.423621402,1359.0
88.440332671,1413.0
88.457043940,1384.0
88.473755209,1411.0
88.490466478,1400.0
88.507177747,1364.0
88.523889016,1408.0
88.540600284,1387.0
88.557311553,1407.0
88.574022822,1418.0
88.590734091,1424.0
88.607445360,1387.0
88.624156629,1391.0
88.640867898,1300.0
88.657579167,1484.0
88.674290436,1443.0
88.691001705,1433.0
88.707712974,1405.0
88.724424243,1404.0
88.741135512,1340.0
88.757846781,1448.0
88.774558050,1389.0
88.791269319,1331.0
88.807980588,1349.0
88.824691857,1373.0
88.841403126,1362.0
88.858114395,1421.0
88.874825664,1338.0
88.891536933,1379.0
88.908248202,1354.0
88.924959471,1423.0
88.941670740,1465.0
88.958382009,1357.0
88.975093278,1389.0
88.991804547,1358.0
89.008515816,1370.0
89.025227085,1443.0
89.041938354,1363.0
89.058649623,1381.0
89.075360892,1283.0
89.092072161,1352.0
89.108783430,1461.0
89.125494699,1414.0
89.142205968,1400.0
89.158917237,1404.0
89.175628506,1433.0
89.192339775,1357.0
89.209051044,1365.0
89.225762313,1379.0
89.242473582,1382.0
89.259184851,1344.0
89.275896120,1393.0
89.292607388,1289.0
89.309318657,1403.0
89.326029926,1339.0
89.342741195,1336.0
89.359452464,1364.0
89.376163733,1377.0
89.392875002,1340.0
89.409586271,1367.0
89.426297540,1359.0
89.443008809,1444.0
89.459720078,1378.0
89.476431347,1484.0
89.493142616,1385.0
89.509853885,1331.0
89.526565154,1353.0
89.543276423,1391.0
89.559987692,1422.0
89.576698961,1366.0
89.593410230,1415.0
89.610121499,1386.0
89.626832768,1339.0
89.643544037,1396.0
89.660255306,1363.0
89.676966575,1358.0
89.693677844,1373.0
89.710389113,1402.0
89.727100382,1349.0
89.743811651,1382.0
89.760522920,1397.0
89.777234189,1358.0
89.793945458,1380.0
89.810656727,1388.0
89.827367996,1397.0
89.844079265,1417.0
89.860790534,1328.0
89.877501803,1376.0
89.894213072,1392.0
89.910924341,1374.0
89.927635610,1341.0
89.944346879,1381.0
89.961058148,1326.0
89.977769417,1421.0
89.994480686,1403.0
90.011191955,1404.0
90.027903224,1332.0
90.044614493,1351.0
90.061325761,1317.0
90.078037030,1363.0
90.094748299,1350.0
90.111459568,1386.0
90.128170837,1300.0
90.144882106,1334.0
90.161593375,1409.0
90.178304644,1341.0
90.195015913,1358.0
90.211727182,1360.0
90.228438451,1376.0
90.245149720,1396.0
90.261860989,1408.0
90.278572258,1368.0
90.295283527,1340.0
90.311994796,1396.0
90.328706065,1330.0
90.345417334,1319.0
90.362128603,1452.0
90.378839872,1312.0
90.395551141,1460.0
90.412262410,1337.0
90.428973679,1379.0
90.445684948,1437.0
90.462396217,1388.0
90.479107486,1313.0
90.495818755,1339.0
90.512530024,1363.0
90.529241293,1349.0
90.545952562,1383.0
90.562663831,1391.0
90.579375100,1376.0
90.596086369,1288.0
90.612797638,1311.0
90.629508907,1335.0
90.646220176,1308.0
90.662931445,1343.0
90.679642714,1363.0
90.696353983,1391.0
90.713065252,1410.0
90.729776521,1369.0
90.746487790,1377.0
90.763199059,1306.0
90.779910328,1366.0
90.796621597,1398.0
90.813332865,1347.0
90.830044134,1397.0
90.846755403,1407.0
90.863466672,1370.0
90.880177941,1365.0
90.896889210,1342.0
90.913600479,1338.0
90.930311748,1360.0
90.947023017,1353.0
90.963734286,1426.0
90.980445555,1311.0
90.997156824,1433.0
91.013868093,1381.0
91.030579362,1380.0
91.047290631,1423.0
91.064001900,1377.0
91.080713169,1397.0
91.097424438,1375.0
91.114135707,1431.0
91.130846976,1366.0
91.147558245,1425.0
91.164269514,1368.0
91.180980783,1443.0
91.197692052,1390.0
91.214403321,1396.0
91.231114590,1345.0
91.247825859,1326.0
91.264537128,1338.0
91.281248397,1324.0
91.297959666,1347.0
91.314670935,1402.0
91.331382204,1371.0
91.348093473,1431.0
91.364804742,1397.0
91.381516011,1442.0
91.398227280,1432.0
91.414938549,1368.0
91.431649818,1421.0
91.448361087,1423.0
91.465072356,1408.0
91.481783625,1360.0
91.498494894,1418.0
91.515206163,1436.0
91.531917432,1469.0
91.548628701,1431.0
91.565339970,1426.0
91.582051238,1383.0
91.598762507,1493.0
91.615473776,1448.0
91.632185045,1382.0
91.648896314,1485.0
91.665607583,1469.0
91.682318852,1458.0
91.699030121,1546.0
91.715741390,1447.0
91.732452659,1531.0
91.749163928,1486.0
91.765875197,1448.0
91.782586466,1534.0
91.799297735,1563.0
91.816009004,1500.0
91.832720273,1483.0
91.849431542,1523.0
91.866142811,1603.0
91.882854080,1598.0
91.899565349,1617.0
91.916276618,1543.0
91.932987887,1597.0
91.949699156,1586.0
91.966410425,1538.0
91.983121694,1533.0
91.999832963,1640.0
92.016544232,1673.0
92.033255501,1687.0
92.049966770,1593.0
92.066678039,1602.0
92.083389308,1584.0
92.100100577,1601.0
92.116811846,1576.0
92.133523115,1524.0
92.150234384,1629.0
92.166945653,1489.0
92.183656922,1502.0
92.200368191,1509.0
92.217079460,1571.0
92.233790729,1471.0
92.250501998,1507.0
92.267213267,1526.0
92.283924536,1479.0
92.300635805,1475.0
92.317347074,1497.0
92.334058342,1451.0
92.350769611,1465.0
92.367480880,1394.0
92.384192149,1516.0
92.400903418,1408.0
92.417614687,1494.0
92.434325956,1436.0
92.451037225,1466.0
92.467748494,1444.0
92.484459763,1426.0
92.501171032,1398.0
92.517882301,1399.0
92.534593570,1378.0
92.551304839,1436.0
92.568016108,1367.0
92.584727377,1441.0
92.601438646,1407.0
92.618149915,1448.0
92.634861184,1349.0
92.651572453,1385.0
92.668283722,1503.0
92.684994991,1385.0
92.701706260,1345.0
92.718417529,1385.0
92.735128798,1357.0
92.751840067,1324.0
92.768551336,1455.0
92.785262605,1368.0
92.801973874,1279.0
92.818685143,1358.0
92.835396412,1340.0
92.852107681,1345.0
92.868818950,1304.0
92.885530219,1306.0
92.902241488,1352.0
92.918952757,1400.0
92.935664026,1412.0
92.952375295,1356.0
92.969086564,1370.0
92.985797833,1362.0
93.002509102,1261.0
93.019220371,1334.0
93.035931640,1323.0
93.052642909,1343.0
93.069354178,1387.0
93.086065447,1380.0
93.102776715,1336.0
93.119487984,1433.0
93.136199253,1374.0
93.152910522,1439.0
93.169621791,1326.0
93.186333060,1318.0
93.203044329,1337.0
93.219755598,1324.0
93.236466867,1392.0
93.253178136,1287.0
93.269889405,1362.0
93.286600674,1381.0
93.303311943,1383.0
93.320023212,1354.0
93.336734481,1368.0
93.353445750,1365.0
93.370157019,1351.0
93.386868288,1332.0
93.403579557,1345.0
93.420290826,1358.0
93.437002095,1278.0
93.453713364,1341.0
93.470424633,1290.0
93.487135902,1309.0
93.503847171,1346.0
93.520558440,1368.0
93.537269709,1356.0
93.553980978,1318.0
93.570692247,1378.0
93.587403516,1299.0
93.604114785,1307.0
93.620826054,1325.0
93.637537323,1361.0
93.654248592,1361.0
93.670959861,1418.0
93.687671130,1329.0
93.704382399,1387.0
93.721093668,1314.0
93.737804937,1286.0
93.754516206,1265.0
93.771227475,1411.0
93.787938744,1322.0
93.804650013,1325.0
93.821361282,1359.0
93.838072551,1360.0
93.854783819,1342.0
93.871495088,1383.0
93.888206357,1288.0
93.904917626,1355.0
93.921628895,1345.0
93.938340164,1369.0
93.955051433,1328.0
93.971762702,1303.0
93.988473971,1366.0
94.005185240,1365.0
94.021896509,1375.0
94.038607778,1391.0
94.055319047,1369.0
94.072030316,1391.0
94.088741585,1388.0
94.105452854,1313.0
94.122164123,1364.0
94.138875392,1357.0
94.155586661,1278.0
94.172297930,1280.0
94.189009199,1343.0
94.205720468,1369.0
94.222431737,1337.0
94.239143006,1404.0
94.255854275,1385.0
94.272565544,1334.0
94.289276813,1369.0
94.305988082,1388.0
94.322699351,1394.0
94.339410620,1446.0
94.356121889,1381.0
94.372833158,1390.0
94.389544427,1382.0
94.406255696,1376.0
94.422966965,1411.0
94.439678234,1337.0
94.456389503,1359.0
94.473100772,1341.0
94.489812041,1318.0
94.506523310,1354.0
94.523234579,1359.0
94.539945848,1373.0
94.556657117,1293.0
94.573368386,1360.0
94.590079655,1327.0
94.606790924,1422.0
94.623502192,1296.0
94.640213461,1375.0
94.656924730,1355.0
94.673635999,1341.0
94.690347268,1301.0
94.707058537,1386.0
94.723769806,1358.0
94.740481075,1396.0
94.757192344,1350.0
94.773903613,1347.0
94.790614882,1310.0
94.807326151,1331.0
94.824037420,1337.0
94.840748689,1296.0
94.857459958,1315.0
94.874171227,1361.0
94.890882496,1340.0
94.907593765,1347.0
94.924305034,1278.0
94.941016303,1317.0
94.957727572,1344.0
94.974438841,1375.0
94.991150110,1385.0
