[Measurement conditions]
Sample identification,
Comment - 1,"finito"
Comment - 2,"Configuration=MRI TC-Basic Stage, Owner=User-1, Creation date=26-10-2009 9:18:44"
Comment - 3,"Goniometer=PW3050/60 (Theta/Theta); Minimum step size 2Theta:0.001; Minimum step size Omega:0.001"
Comment - 4,"Sample stage=MRI TC-Basic (PtRh heat strip)"
Comment - 5,"Diffractometer system=XPERT-PRO"
Comment - 6,"Measurement program=FS-L, Owner=joana, Creation date=25-11-2014 17:28:08"
Anode material,Cu
K-Alpha1 wavelength,1.5405980
K-Alpha2 wavelength,1.5444260
Ratio K-Alpha2/K-Alpha1,0.500
Divergence slit,Fixed,0.76mm
Monochromator used,NO
Generator voltage, 45
Tube current, 40
File date and time,16-Dez-2017 00:13
Unit cell,
h k l, 0 0 0
Temperature [K],623
Scan axis,Gonio
Scan range,24.995999996,94.999505744
Scan step size,0.0167113
No. of points, 4189
Scan type,CONTINUOUS
Time per step,118.110
[Scan points]
Angle,Intensity
25.004355630,2234.0
25.021066899,2289.0
25.037778168,2197.0
25.054489437,2322.0
25.071200706,2347.0
25.087911975,2220.0
25.104623244,2148.0
25.121334513,2264.0
25.138045782,2200.0
25.154757051,2200.0
25.171468320,2162.0
25.188179589,2254.0
25.204890858,2201.0
25.221602127,2218.0
25.238313396,2192.0
25.255024665,2214.0
25.271735934,2232.0
25.288447203,2296.0
25.305158472,2226.0
25.321869741,2170.0
25.338581010,2213.0
25.355292279,2156.0
25.372003548,2253.0
25.388714816,2242.0
25.405426085,2191.0
25.422137354,2136.0
25.438848623,2192.0
25.455559892,2217.0
25.472271161,2257.0
25.488982430,2201.0
25.505693699,2194.0
25.522404968,2240.0
25.539116237,2251.0
25.555827506,2131.0
25.572538775,2203.0
25.589250044,2131.0
25.605961313,2216.0
25.622672582,2149.0
25.639383851,2167.0
25.656095120,2127.0
25.672806389,2279.0
25.689517658,2257.0
25.706228927,2224.0
25.722940196,2179.0
25.739651465,2213.0
25.756362734,2164.0
25.773074003,2153.0
25.789785272,2164.0
25.806496541,2150.0
25.823207810,2168.0
25.839919079,2211.0
25.856630348,2188.0
25.873341617,2117.0
25.890052886,2201.0
25.906764155,2194.0
25.923475424,2268.0
25.940186693,2323.0
25.956897962,2114.0
25.973609231,2142.0
25.990320500,2145.0
26.007031769,2211.0
26.023743038,2181.0
26.040454307,2198.0
26.057165576,2253.0
26.073876845,2094.0
26.090588114,2252.0
26.107299383,2086.0
26.124010652,2125.0
26.140721921,2225.0
26.157433189,2254.0
26.174144458,2208.0
26.190855727,2195.0
26.207566996,2159.0
26.224278265,2151.0
26.240989534,2138.0
26.257700803,2208.0
26.274412072,2209.0
26.291123341,2227.0
26.307834610,2123.0
26.324545879,2139.0
26.341257148,2154.0
26.357968417,2174.0
26.374679686,2253.0
26.391390955,2193.0
26.408102224,2191.0
26.424813493,2206.0
26.441524762,2193.0
26.458236031,2163.0
26.474947300,2164.0
26.491658569,2211.0
26.508369838,2111.0
26.525081107,2256.0
26.541792376,2169.0
26.558503645,2180.0
26.575214914,2216.0
26.591926183,2210.0
26.608637452,2229.0
26.625348721,2228.0
26.642059990,2139.0
26.658771259,2089.0
26.675482528,2265.0
26.692193797,2330.0
26.708905066,2165.0
26.725616335,2260.0
26.742327604,2105.0
26.759038873,2253.0
26.775750142,2304.0
26.792461411,2219.0
26.809172680,2206.0
26.825883949,2217.0
26.842595218,2159.0
26.859306487,2235.0
26.876017756,2151.0
26.892729025,2221.0
26.909440293,2187.0
26.926151562,2147.0
26.942862831,2105.0
26.959574100,2158.0
26.976285369,2184.0
26.992996638,2122.0
27.009707907,2213.0
27.026419176,2198.0
27.043130445,2207.0
27.059841714,2219.0
27.076552983,2152.0
27.093264252,2226.0
27.109975521,2223.0
27.126686790,2237.0
27.143398059,2162.0
27.160109328,2135.0
27.176820597,2160.0
27.193531866,2218.0
27.210243135,2182.0
27.226954404,2236.0
27.243665673,2195.0
27.260376942,2113.0
27.277088211,2169.0
27.293799480,2111.0
27.310510749,2149.0
27.327222018,2168.0
27.343933287,2193.0
27.360644556,2226.0
27.377355825,2180.0
27.394067094,2167.0
27.410778363,2191.0
27.427489632,2167.0
27.444200901,2192.0
27.460912170,2150.0
27.477623439,2219.0
27.494334708,2265.0
27.511045977,2077.0
27.527757246,2157.0
27.544468515,2210.0
27.561179784,2165.0
27.577891053,2119.0
27.594602322,2114.0
27.611313591,2179.0
27.628024860,2210.0
27.644736129,2153.0
27.661447398,2240.0
27.678158666,2111.0
27.694869935,2179.0
27.711581204,2208.0
27.728292473,2187.0
27.745003742,2128.0
27.761715011,2115.0
27.778426280,2109.0
27.795137549,2220.0
27.811848818,2175.0
27.828560087,2173.0
27.845271356,2231.0
27.861982625,2068.0
27.878693894,2186.0
27.895405163,2177.0
27.912116432,2258.0
27.928827701,2093.0
27.945538970,2147.0
27.962250239,2225.0
27.978961508,2165.0
27.995672777,2173.0
28.012384046,2183.0
28.029095315,2184.0
28.045806584,2118.0
28.062517853,2161.0
28.079229122,2200.0
28.095940391,2227.0
28.112651660,2049.0
28.129362929,2099.0
28.146074198,2178.0
28.162785467,2202.0
28.179496736,2232.0
28.196208005,2279.0
28.212919274,2253.0
28.229630543,2319.0
28.246341812,2225.0
28.263053081,2278.0
28.279764350,3107.0
28.296475619,3173.0
28.313186888,2510.0
28.329898157,2306.0
28.346609426,2538.0
28.363320695,2818.0
28.380031964,2540.0
28.396743233,2333.0
28.413454502,2299.0
28.430165770,2285.0
28.446877039,2359.0
28.463588308,2409.0
28.480299577,2337.0
28.497010846,2305.0
28.513722115,2283.0
28.530433384,2267.0
28.547144653,2355.0
28.563855922,2361.0
28.580567191,2251.0
28.597278460,2361.0
28.613989729,2346.0
28.630700998,2263.0
28.647412267,2340.0
28.664123536,2263.0
28.680834805,2270.0
28.697546074,2312.0
28.714257343,2191.0
28.730968612,2221.0
28.747679881,2152.0
28.764391150,2266.0
28.781102419,2252.0
28.797813688,2199.0
28.814524957,2179.0
28.831236226,2213.0
28.847947495,2223.0
28.864658764,2172.0
28.881370033,2228.0
28.898081302,2136.0
28.914792571,2257.0
28.931503840,2257.0
28.948215109,2258.0
28.964926378,2179.0
28.981637647,2205.0
28.998348916,2179.0
29.015060185,2117.0
29.031771454,2154.0
29.048482723,2198.0
29.065193992,2174.0
29.081905261,2202.0
29.098616530,2158.0
29.115327799,2230.0
29.132039068,2150.0
29.148750337,2191.0
29.165461606,2044.0
29.182172875,2166.0
29.198884143,2093.0
29.215595412,2160.0
29.232306681,2111.0
29.249017950,2082.0
29.265729219,2152.0
29.282440488,2189.0
29.299151757,2186.0
29.315863026,2172.0
29.332574295,2139.0
29.349285564,2112.0
29.365996833,2129.0
29.382708102,2185.0
29.399419371,2149.0
29.416130640,2098.0
29.432841909,2157.0
29.449553178,2112.0
29.466264447,2130.0
29.482975716,2132.0
29.499686985,2127.0
29.516398254,2124.0
29.533109523,2094.0
29.549820792,2117.0
29.566532061,2214.0
29.583243330,2150.0
29.599954599,2092.0
29.616665868,2054.0
29.633377137,2097.0
29.650088406,2103.0
29.666799675,2109.0
29.683510944,2131.0
29.700222213,2147.0
29.716933482,2150.0
29.733644751,2236.0
29.750356020,2122.0
29.767067289,2189.0
29.783778558,2097.0
29.800489827,2158.0
29.817201096,2146.0
29.833912365,2160.0
29.850623634,2085.0
29.867334903,2194.0
29.884046172,2204.0
29.900757441,2126.0
29.917468710,2150.0
29.934179979,2282.0
29.950891247,2140.0
29.967602516,2199.0
29.984313785,2161.0
30.001025054,2150.0
30.017736323,2099.0
30.034447592,2056.0
30.051158861,2113.0
30.067870130,2173.0
30.084581399,2177.0
30.101292668,2157.0
30.118003937,2135.0
30.134715206,2106.0
30.151426475,2132.0
30.168137744,2140.0
30.184849013,2104.0
30.201560282,2166.0
30.218271551,2103.0
30.234982820,2079.0
30.251694089,2156.0
30.268405358,2113.0
30.285116627,2113.0
30.301827896,2120.0
30.318539165,2130.0
30.335250434,2116.0
30.351961703,2101.0
30.368672972,2126.0
30.385384241,2157.0
30.402095510,2071.0
30.418806779,2084.0
30.435518048,2102.0
30.452229317,2166.0
30.468940586,2125.0
30.485651855,2122.0
30.502363124,2137.0
30.519074393,2130.0
30.535785662,2102.0
30.552496931,2141.0
30.569208200,2109.0
30.585919469,2085.0
30.602630738,2138.0
30.619342007,2077.0
30.636053276,2253.0
30.652764545,2133.0
30.669475814,2121.0
30.686187083,2234.0
30.702898352,2114.0
30.719609620,2060.0
30.736320889,2138.0
30.753032158,2194.0
30.769743427,2125.0
30.786454696,2111.0
30.803165965,2094.0
30.819877234,2226.0
30.836588503,2008.0
30.853299772,2109.0
30.870011041,2098.0
30.886722310,2155.0
30.903433579,2102.0
30.920144848,2191.0
30.936856117,2099.0
30.953567386,2147.0
30.970278655,2081.0
30.986989924,2060.0
31.003701193,2112.0
31.020412462,2081.0
31.037123731,2119.0
31.053835000,2105.0
31.070546269,2042.0
31.087257538,2096.0
31.103968807,2122.0
31.120680076,2053.0
31.137391345,2124.0
31.154102614,2217.0
31.170813883,2170.0
31.187525152,2095.0
31.204236421,2184.0
31.220947690,2167.0
31.237658959,2185.0
31.254370228,2150.0
31.271081497,2185.0
31.287792766,2075.0
31.304504035,2045.0
31.321215304,2124.0
31.337926573,2142.0
31.354637842,2097.0
31.371349111,2170.0
31.388060380,2104.0
31.404771649,2143.0
31.421482918,2018.0
31.438194187,2133.0
31.454905456,2157.0
31.471616724,2126.0
31.488327993,2191.0
31.505039262,2045.0
31.521750531,2081.0
31.538461800,2014.0
31.555173069,2128.0
31.571884338,2099.0
31.588595607,2085.0
31.605306876,2078.0
31.622018145,2176.0
31.638729414,2029.0
31.655440683,2136.0
31.672151952,2130.0
31.688863221,2062.0
31.705574490,2170.0
31.722285759,2140.0
31.738997028,2104.0
31.755708297,2095.0
31.772419566,2121.0
31.789130835,2096.0
31.805842104,2051.0
31.822553373,2080.0
31.839264642,2104.0
31.855975911,2042.0
31.872687180,2150.0
31.889398449,2135.0
31.906109718,2174.0
31.922820987,2085.0
31.939532256,2197.0
31.956243525,2066.0
31.972954794,2158.0
31.989666063,2075.0
32.006377332,2147.0
32.023088601,2145.0
32.039799870,2066.0
32.056511139,2053.0
32.073222408,2066.0
32.089933677,2116.0
32.106644946,2090.0
32.123356215,2113.0
32.140067484,2063.0
32.156778753,2174.0
32.173490022,2078.0
32.190201291,2097.0
32.206912560,2123.0
32.223623829,2183.0
32.240335097,2163.0
32.257046366,2066.0
32.273757635,2107.0
32.290468904,2064.0
32.307180173,2048.0
32.323891442,2118.0
32.340602711,2141.0
32.357313980,2136.0
32.374025249,2188.0
32.390736518,2113.0
32.407447787,2115.0
32.424159056,2121.0
32.440870325,1992.0
32.457581594,2096.0
32.474292863,2190.0
32.491004132,2175.0
32.507715401,2108.0
32.524426670,2173.0
32.541137939,2159.0
32.557849208,2153.0
32.574560477,2113.0
32.591271746,2130.0
32.607983015,2176.0
32.624694284,2128.0
32.641405553,2114.0
32.658116822,2151.0
32.674828091,2143.0
32.691539360,2182.0
32.708250629,2155.0
32.724961898,2155.0
32.741673167,2024.0
32.758384436,2095.0
32.775095705,2140.0
32.791806974,2002.0
32.808518243,2183.0
32.825229512,2095.0
32.841940781,2098.0
32.858652050,2025.0
32.875363319,2087.0
32.892074588,2174.0
32.908785857,2033.0
32.925497126,2104.0
32.942208395,2048.0
32.958919664,2164.0
32.975630933,2142.0
32.992342201,2152.0
33.009053470,2205.0
33.025764739,2099.0
33.042476008,2019.0
33.059187277,2075.0
33.075898546,2106.0
33.092609815,2089.0
33.109321084,2156.0
33.126032353,2166.0
33.142743622,2080.0
33.159454891,2200.0
33.176166160,2057.0
33.192877429,2184.0
33.209588698,2183.0
33.226299967,2141.0
33.243011236,2124.0
33.259722505,2151.0
33.276433774,2187.0
33.293145043,2194.0
33.309856312,2097.0
33.326567581,2153.0
33.343278850,2103.0
33.359990119,2107.0
33.376701388,2111.0
33.393412657,2043.0
33.410123926,2165.0
33.426835195,2190.0
33.443546464,2160.0
33.460257733,2051.0
33.476969002,2043.0
33.493680271,2140.0
33.510391540,2118.0
33.527102809,2045.0
33.543814078,2149.0
33.560525347,2072.0
33.577236616,2089.0
33.593947885,2068.0
33.610659154,2244.0
33.627370423,2106.0
33.644081692,2145.0
33.660792961,2128.0
33.677504230,2151.0
33.694215499,2146.0
33.710926768,2210.0
33.727638037,2088.0
33.744349306,2052.0
33.761060574,2136.0
33.777771843,2132.0
33.794483112,2039.0
33.811194381,2224.0
33.827905650,2103.0
33.844616919,2087.0
33.861328188,2086.0
33.878039457,2026.0
33.894750726,2139.0
33.911461995,2230.0
33.928173264,2028.0
33.944884533,2020.0
33.961595802,2000.0
33.978307071,2110.0
33.995018340,2081.0
34.011729609,2080.0
34.028440878,2110.0
34.045152147,2074.0
34.061863416,2082.0
34.078574685,2064.0
34.095285954,2151.0
34.111997223,2106.0
34.128708492,2117.0
34.145419761,2129.0
34.162131030,2152.0
34.178842299,2064.0
34.195553568,2072.0
34.212264837,2105.0
34.228976106,2033.0
34.245687375,2067.0
34.262398644,2050.0
34.279109913,2103.0
34.295821182,2070.0
34.312532451,2164.0
34.329243720,2162.0
34.345954989,2122.0
34.362666258,2069.0
34.379377527,2087.0
34.396088796,2125.0
34.412800065,2101.0
34.429511334,2098.0
34.446222603,2161.0
34.462933872,2088.0
34.479645141,2031.0
34.496356410,1994.0
34.513067679,2047.0
34.529778947,2048.0
34.546490216,2157.0
34.563201485,2096.0
34.579912754,2061.0
34.596624023,2118.0
34.613335292,2109.0
34.630046561,2103.0
34.646757830,2076.0
34.663469099,2117.0
34.680180368,2068.0
34.696891637,2057.0
34.713602906,2104.0
34.730314175,2028.0
34.747025444,2090.0
34.763736713,2056.0
34.780447982,2120.0
34.797159251,1967.0
34.813870520,2078.0
34.830581789,2044.0
34.847293058,2094.0
34.864004327,2038.0
34.880715596,2017.0
34.897426865,2063.0
34.914138134,2083.0
34.930849403,2003.0
34.947560672,2108.0
34.964271941,2038.0
34.980983210,2015.0
34.997694479,2177.0
35.014405748,1961.0
35.031117017,2116.0
35.047828286,2041.0
35.064539555,2180.0
35.081250824,2025.0
35.097962093,2129.0
35.114673362,1994.0
35.131384631,2142.0
35.148095900,2073.0
35.164807169,2084.0
35.181518438,2035.0
35.198229707,2027.0
35.214940976,2117.0
35.231652245,2130.0
35.248363514,2068.0
35.265074783,2054.0
35.281786051,2066.0
35.298497320,2058.0
35.315208589,2054.0
35.331919858,2053.0
35.348631127,2031.0
35.365342396,2089.0
35.382053665,2098.0
35.398764934,2047.0
35.415476203,2071.0
35.432187472,2144.0
35.448898741,2065.0
35.465610010,2149.0
35.482321279,2092.0
35.499032548,2128.0
35.515743817,2133.0
35.532455086,2106.0
35.549166355,1967.0
35.565877624,2179.0
35.582588893,2090.0
35.599300162,2089.0
35.616011431,2085.0
35.632722700,2127.0
35.649433969,2063.0
35.666145238,2114.0
35.682856507,2095.0
35.699567776,2088.0
35.716279045,2092.0
35.732990314,2042.0
35.749701583,2099.0
35.766412852,2140.0
35.783124121,2132.0
35.799835390,2118.0
35.816546659,2176.0
35.833257928,2181.0
35.849969197,2105.0
35.866680466,2051.0
35.883391735,2094.0
35.900103004,2010.0
35.916814273,2104.0
35.933525542,2112.0
35.950236811,2101.0
35.966948080,1982.0
35.983659349,2076.0
36.000370618,1988.0
36.017081887,2005.0
36.033793156,2063.0
36.050504424,2039.0
36.067215693,2200.0
36.083926962,2103.0
36.100638231,1966.0
36.117349500,2029.0
36.134060769,2101.0
36.150772038,2126.0
36.167483307,2122.0
36.184194576,2060.0
36.200905845,2127.0
36.217617114,2104.0
36.234328383,2163.0
36.251039652,2092.0
36.267750921,2070.0
36.284462190,2079.0
36.301173459,2092.0
36.317884728,2124.0
36.334595997,2122.0
36.351307266,2100.0
36.368018535,2156.0
36.384729804,2125.0
36.401441073,2136.0
36.418152342,2056.0
36.434863611,2045.0
36.451574880,2121.0
36.468286149,2076.0
36.484997418,2066.0
36.501708687,2039.0
36.518419956,2181.0
36.535131225,2167.0
36.551842494,2145.0
36.568553763,2135.0
36.585265032,2034.0
36.601976301,2023.0
36.618687570,2078.0
36.635398839,2029.0
36.652110108,2032.0
36.668821377,2053.0
36.685532646,2006.0
36.702243915,1936.0
36.718955184,2155.0
36.735666453,2058.0
36.752377722,2120.0
36.769088991,2050.0
36.785800260,2022.0
36.802511528,2116.0
36.819222797,2065.0
36.835934066,2206.0
36.852645335,2062.0
36.869356604,2109.0
36.886067873,2091.0
36.902779142,2033.0
36.919490411,2099.0
36.936201680,2124.0
36.952912949,2111.0
36.969624218,2090.0
36.986335487,2087.0
37.003046756,2131.0
37.019758025,2051.0
37.036469294,2028.0
37.053180563,2069.0
37.069891832,2094.0
37.086603101,2175.0
37.103314370,2059.0
37.120025639,2090.0
37.136736908,1989.0
37.153448177,2047.0
37.170159446,2063.0
37.186870715,2045.0
37.203581984,2045.0
37.220293253,2113.0
37.237004522,2144.0
37.253715791,1976.0
37.270427060,2093.0
37.287138329,2000.0
37.303849598,2121.0
37.320560867,2081.0
37.337272136,2085.0
37.353983405,2013.0
37.370694674,2073.0
37.387405943,2089.0
37.404117212,2055.0
37.420828481,2058.0
37.437539750,2112.0
37.454251019,2077.0
37.470962288,2101.0
37.487673557,2075.0
37.504384826,1977.0
37.521096095,1998.0
37.537807364,2082.0
37.554518633,1980.0
37.571229901,2080.0
37.587941170,2054.0
37.604652439,2113.0
37.621363708,2188.0
37.638074977,2030.0
37.654786246,1990.0
37.671497515,2090.0
37.688208784,2047.0
37.704920053,2088.0
37.721631322,2101.0
37.738342591,2107.0
37.755053860,1986.0
37.771765129,2118.0
37.788476398,2036.0
37.805187667,1979.0
37.821898936,2144.0
37.838610205,2041.0
37.855321474,2134.0
37.872032743,2107.0
37.888744012,2097.0
37.905455281,2132.0
37.922166550,2094.0
37.938877819,2082.0
37.955589088,2055.0
37.972300357,2135.0
37.989011626,2138.0
38.005722895,2103.0
38.022434164,2102.0
38.039145433,2038.0
38.055856702,2097.0
38.072567971,2132.0
38.089279240,2008.0
38.105990509,2077.0
38.122701778,2036.0
38.139413047,2132.0
38.156124316,2062.0
38.172835585,2117.0
38.189546854,2087.0
38.206258123,2053.0
38.222969392,2048.0
38.239680661,2024.0
38.256391930,2092.0
38.273103199,1967.0
38.289814468,2077.0
38.306525737,2026.0
38.323237005,1978.0
38.339948274,2050.0
38.356659543,2037.0
38.373370812,2003.0
38.390082081,2021.0
38.406793350,2038.0
38.423504619,2006.0
38.440215888,2079.0
38.456927157,2024.0
38.473638426,1949.0
38.490349695,1992.0
38.507060964,2028.0
38.523772233,2082.0
38.540483502,2017.0
38.557194771,1962.0
38.573906040,2059.0
38.590617309,1994.0
38.607328578,2119.0
38.624039847,1926.0
38.640751116,2165.0
38.657462385,2069.0
38.674173654,2006.0
38.690884923,1984.0
38.707596192,2066.0
38.724307461,2013.0
38.741018730,1976.0
38.757729999,2070.0
38.774441268,2062.0
38.791152537,2125.0
38.807863806,2037.0
38.824575075,1986.0
38.841286344,2113.0
38.857997613,2006.0
38.874708882,2114.0
38.891420151,1990.0
38.908131420,1986.0
38.924842689,1948.0
38.941553958,2010.0
38.958265227,2107.0
38.974976496,2012.0
38.991687765,2067.0
39.008399034,1983.0
39.025110303,2038.0
39.041821572,1974.0
39.058532841,1966.0
39.075244110,2008.0
39.091955378,2025.0
39.108666647,2026.0
39.125377916,2045.0
39.142089185,2097.0
39.158800454,2006.0
39.175511723,1988.0
39.192222992,1939.0
39.208934261,2011.0
39.225645530,2037.0
39.242356799,2025.0
39.259068068,2038.0
39.275779337,2025.0
39.292490606,2041.0
39.309201875,1962.0
39.325913144,2048.0
39.342624413,1995.0
39.359335682,1954.0
39.376046951,2042.0
39.392758220,1971.0
39.409469489,2015.0
39.426180758,2050.0
39.442892027,1979.0
39.459603296,1923.0
39.476314565,2111.0
39.493025834,2065.0
39.509737103,2069.0
39.526448372,2128.0
39.543159641,2064.0
39.559870910,2107.0
39.576582179,2080.0
39.593293448,2151.0
39.610004717,2128.0
39.626715986,2180.0
39.643427255,2226.0
39.660138524,2257.0
39.676849793,2346.0
39.693561062,2352.0
39.710272331,2441.0
39.726983600,2405.0
39.743694869,2218.0
39.760406138,2271.0
39.777117407,2201.0
39.793828676,2221.0
39.810539945,2205.0
39.827251214,2255.0
39.843962482,2121.0
39.860673751,2072.0
39.877385020,2110.0
39.894096289,2094.0
39.910807558,2011.0
39.927518827,1985.0
39.944230096,2086.0
39.960941365,2011.0
39.977652634,2135.0
39.994363903,2132.0
40.011075172,2155.0
40.027786441,2115.0
40.044497710,2122.0
40.061208979,2095.0
40.077920248,2078.0
40.094631517,2069.0
40.111342786,2101.0
40.128054055,2142.0
40.144765324,2106.0
40.161476593,2082.0
40.178187862,2018.0
40.194899131,2068.0
40.211610400,2106.0
40.228321669,1991.0
40.245032938,2010.0
40.261744207,1891.0
40.278455476,1970.0
40.295166745,2015.0
40.311878014,2080.0
40.328589283,1993.0
40.345300552,2037.0
40.362011821,1995.0
40.378723090,2008.0
40.395434359,2015.0
40.412145628,2017.0
40.428856897,2017.0
40.445568166,2047.0
40.462279435,2150.0
40.478990704,2002.0
40.495701973,1986.0
40.512413242,1986.0
40.529124511,2015.0
40.545835780,1972.0
40.562547049,2014.0
40.579258318,2113.0
40.595969587,2062.0
40.612680855,1965.0
40.629392124,1934.0
40.646103393,1984.0
40.662814662,1982.0
40.679525931,1970.0
40.696237200,2014.0
40.712948469,1890.0
40.729659738,2058.0
40.746371007,1956.0
40.763082276,2135.0
40.779793545,2063.0
40.796504814,2007.0
40.813216083,1921.0
40.829927352,2036.0
40.846638621,2055.0
40.863349890,1955.0
40.880061159,2007.0
40.896772428,1953.0
40.913483697,2043.0
40.930194966,1942.0
40.946906235,2038.0
40.963617504,1895.0
40.980328773,2043.0
40.997040042,2032.0
41.013751311,1977.0
41.030462580,1972.0
41.047173849,1962.0
41.063885118,2009.0
41.080596387,1966.0
41.097307656,1959.0
41.114018925,1961.0
41.130730194,1951.0
41.147441463,2052.0
41.164152732,2057.0
41.180864001,1973.0
41.197575270,1929.0
41.214286539,2065.0
41.230997808,1926.0
41.247709077,2018.0
41.264420346,2041.0
41.281131615,1979.0
41.297842884,1937.0
41.314554153,1991.0
41.331265422,1937.0
41.347976691,2002.0
41.364687959,2052.0
41.381399228,1939.0
41.398110497,1983.0
41.414821766,1955.0
41.431533035,1930.0
41.448244304,1966.0
41.464955573,1931.0
41.481666842,1973.0
41.498378111,1888.0
41.515089380,1978.0
41.531800649,1975.0
41.548511918,1982.0
41.565223187,1973.0
41.581934456,1932.0
41.598645725,1992.0
41.615356994,1981.0
41.632068263,1958.0
41.648779532,1953.0
41.665490801,2064.0
41.682202070,2064.0
41.698913339,2021.0
41.715624608,2034.0
41.732335877,2028.0
41.749047146,1977.0
41.765758415,2102.0
41.782469684,1953.0
41.799180953,1945.0
41.815892222,1938.0
41.832603491,1984.0
41.849314760,1992.0
41.866026029,2023.0
41.882737298,1965.0
41.899448567,1951.0
41.916159836,1981.0
41.932871105,2033.0
41.949582374,2030.0
41.966293643,2006.0
41.983004912,2002.0
41.999716181,1969.0
42.016427450,1951.0
42.033138719,2011.0
42.049849988,2026.0
42.066561257,1988.0
42.083272526,1995.0
42.099983795,1987.0
42.116695064,2046.0
42.133406332,2137.0
42.150117601,1976.0
42.166828870,1983.0
42.183540139,2032.0
42.200251408,2001.0
42.216962677,1888.0
42.233673946,2043.0
42.250385215,1992.0
42.267096484,2023.0
42.283807753,2011.0
42.300519022,2045.0
42.317230291,2051.0
42.333941560,2076.0
42.350652829,2042.0
42.367364098,1987.0
42.384075367,2008.0
42.400786636,1963.0
42.417497905,2074.0
42.434209174,2067.0
42.450920443,2052.0
42.467631712,1999.0
42.484342981,1985.0
42.501054250,2070.0
42.517765519,1984.0
42.534476788,2061.0
42.551188057,2033.0
42.567899326,2044.0
42.584610595,2018.0
42.601321864,2087.0
42.618033133,2060.0
42.634744402,2021.0
42.651455671,2119.0
42.668166940,2027.0
42.684878209,2095.0
42.701589478,2092.0
42.718300747,2019.0
42.735012016,2072.0
42.751723285,2154.0
42.768434554,2150.0
42.785145823,2063.0
42.801857092,2045.0
42.818568361,2046.0
42.835279630,1957.0
42.851990899,2022.0
42.868702168,2066.0
42.885413436,2018.0
42.902124705,2098.0
42.918835974,2065.0
42.935547243,2076.0
42.952258512,2078.0
42.968969781,2051.0
42.985681050,1978.0
43.002392319,2036.0
43.019103588,2116.0
43.035814857,2132.0
43.052526126,2094.0
43.069237395,2078.0
43.085948664,2019.0
43.102659933,2002.0
43.119371202,2137.0
43.136082471,2128.0
43.152793740,2036.0
43.169505009,2059.0
43.186216278,2127.0
43.202927547,2137.0
43.219638816,2265.0
43.236350085,2159.0
43.253061354,2206.0
43.269772623,2156.0
43.286483892,2142.0
43.303195161,2187.0
43.319906430,2183.0
43.336617699,2170.0
43.353328968,2188.0
43.370040237,2143.0
43.386751506,2176.0
43.403462775,2158.0
43.420174044,2222.0
43.436885313,2139.0
43.453596582,2115.0
43.470307851,2248.0
43.487019120,2147.0
43.503730389,2212.0
43.520441658,2184.0
43.537152927,2168.0
43.553864196,2303.0
43.570575465,2200.0
43.587286734,2171.0
43.603998003,2369.0
43.620709272,2383.0
43.637420541,2323.0
43.654131809,2340.0
43.670843078,2306.0
43.687554347,2449.0
43.704265616,2457.0
43.720976885,2498.0
43.737688154,2548.0
43.754399423,2489.0
43.771110692,2685.0
43.787821961,2718.0
43.804533230,2816.0
43.821244499,2860.0
43.837955768,3001.0
43.854667037,3093.0
43.871378306,3171.0
43.888089575,3447.0
43.904800844,3501.0
43.921512113,3643.0
43.938223382,3759.0
43.954934651,3894.0
43.971645920,4149.0
43.988357189,4354.0
44.005068458,4660.0
44.021779727,4592.0
44.038490996,5025.0
44.055202265,5307.0
44.071913534,5896.0
44.088624803,6174.0
44.105336072,6696.0
44.122047341,7202.0
44.138758610,7577.0
44.155469879,8260.0
44.172181148,8871.0
44.188892417,9221.0
44.205603686,9486.0
44.222314955,9900.0
44.239026224,9877.0
44.255737493,10370.0
44.272448762,10103.0
44.289160031,9741.0
44.305871300,9425.0
44.322582569,9099.0
44.339293838,8573.0
44.356005107,7753.0
44.372716376,7194.0
44.389427645,6638.0
44.406138913,6010.0
44.422850182,5552.0
44.439561451,5008.0
44.456272720,4629.0
44.472983989,4085.0
44.489695258,3726.0
44.506406527,3386.0
44.523117796,3171.0
44.539829065,2902.0
44.556540334,2900.0
44.573251603,2773.0
44.589962872,2649.0
44.606674141,2625.0
44.623385410,2485.0
44.640096679,2373.0
44.656807948,2388.0
44.673519217,2446.0
44.690230486,2267.0
44.706941755,2235.0
44.723653024,2214.0
44.740364293,2114.0
44.757075562,2183.0
44.773786831,2242.0
44.790498100,2142.0
44.807209369,2230.0
44.823920638,2214.0
44.840631907,2145.0
44.857343176,2176.0
44.874054445,2170.0
44.890765714,2134.0
44.907476983,2122.0
44.924188252,2068.0
44.940899521,2082.0
44.957610790,2088.0
44.974322059,2116.0
44.991033328,2095.0
45.007744597,2023.0
45.024455866,2019.0
45.041167135,2091.0
45.057878404,2058.0
45.074589673,2160.0
45.091300942,2089.0
45.108012211,2188.0
45.124723480,2011.0
45.141434749,2044.0
45.158146018,2172.0
45.174857286,2048.0
45.191568555,2048.0
45.208279824,2153.0
45.224991093,2128.0
45.241702362,2073.0
45.258413631,2098.0
45.275124900,2102.0
45.291836169,2154.0
45.308547438,2212.0
45.325258707,2217.0
45.341969976,2246.0
45.358681245,2185.0
45.375392514,2197.0
45.392103783,2157.0
45.408815052,2099.0
45.425526321,2046.0
45.442237590,2166.0
45.458948859,2171.0
45.475660128,2122.0
45.492371397,2072.0
45.509082666,2028.0
45.525793935,2036.0
45.542505204,1965.0
45.559216473,1946.0
45.575927742,2122.0
45.592639011,1959.0
45.609350280,2059.0
45.626061549,2149.0
45.642772818,2007.0
45.659484087,2024.0
45.676195356,2026.0
45.692906625,2087.0
45.709617894,2087.0
45.726329163,1975.0
45.743040432,2095.0
45.759751701,2083.0
45.776462970,2056.0
45.793174239,2014.0
45.809885508,2119.0
45.826596777,2028.0
45.843308046,2090.0
45.860019315,2058.0
45.876730584,2100.0
45.893441853,2146.0
45.910153122,2111.0
45.926864390,2225.0
45.943575659,2233.0
45.960286928,2330.0
45.976998197,2370.0
45.993709466,2540.0
46.010420735,2570.0
46.027132004,2806.0
46.043843273,2937.0
46.060554542,3248.0
46.077265811,3238.0
46.093977080,3543.0
46.110688349,3882.0
46.127399618,4443.0
46.144110887,5248.0
46.160822156,6671.0
46.177533425,8545.0
46.194244694,7636.0
46.210955963,5255.0
46.227667232,3749.0
46.244378501,3625.0
46.261089770,3693.0
46.277801039,4216.0
46.294512308,5113.0
46.311223577,5260.0
46.327934846,3990.0
46.344646115,3220.0
46.361357384,2856.0
46.378068653,2867.0
46.394779922,2869.0
46.411491191,3060.0
46.428202460,2988.0
46.444913729,3250.0
46.461624998,3310.0
46.478336267,3398.0
46.495047536,3479.0
46.511758805,3554.0
46.528470074,3612.0
46.545181343,3563.0
46.561892612,3562.0
46.578603881,3415.0
46.595315150,3175.0
46.612026419,3213.0
46.628737688,3209.0
46.645448957,3028.0
46.662160226,2964.0
46.678871495,2790.0
46.695582763,2675.0
46.712294032,2578.0
46.729005301,2461.0
46.745716570,2248.0
46.762427839,2198.0
46.779139108,2189.0
46.795850377,2210.0
46.812561646,2044.0
46.829272915,2074.0
46.845984184,2083.0
46.862695453,1946.0
46.879406722,1967.0
46.896117991,2026.0
46.912829260,1928.0
46.929540529,1997.0
46.946251798,1920.0
46.962963067,2019.0
46.979674336,1915.0
46.996385605,1994.0
47.013096874,1909.0
47.029808143,1914.0
47.046519412,1870.0
47.063230681,1895.0
47.079941950,1936.0
47.096653219,2039.0
47.113364488,1823.0
47.130075757,1962.0
47.146787026,1918.0
47.163498295,1943.0
47.180209564,1906.0
47.196920833,1931.0
47.213632102,1922.0
47.230343371,1925.0
47.247054640,1985.0
47.263765909,1928.0
47.280477178,1930.0
47.297188447,1895.0
47.313899716,1874.0
47.330610985,1902.0
47.347322254,1906.0
47.364033523,1919.0
47.380744792,1903.0
47.397456061,1910.0
47.414167330,1935.0
47.430878599,1930.0
47.447589867,1917.0
47.464301136,1785.0
47.481012405,1909.0
47.497723674,1908.0
47.514434943,1821.0
47.531146212,1821.0
47.547857481,2025.0
47.564568750,1948.0
47.581280019,1957.0
47.597991288,1839.0
47.614702557,2000.0
47.631413826,1894.0
47.648125095,1838.0
47.664836364,1881.0
47.681547633,1873.0
47.698258902,1915.0
47.714970171,1833.0
47.731681440,1909.0
47.748392709,1937.0
47.765103978,1906.0
47.781815247,1846.0
47.798526516,1966.0
47.815237785,1898.0
47.831949054,1882.0
47.848660323,1873.0
47.865371592,1872.0
47.882082861,1900.0
47.898794130,1809.0
47.915505399,1944.0
47.932216668,1888.0
47.948927937,1926.0
47.965639206,1920.0
47.982350475,1924.0
47.999061744,2001.0
48.015773013,1956.0
48.032484282,1846.0
48.049195551,1814.0
48.065906820,1943.0
48.082618089,1839.0
48.099329358,1928.0
48.116040627,1897.0
48.132751896,1960.0
48.149463165,1885.0
48.166174434,1851.0
48.182885703,1849.0
48.199596972,1905.0
48.216308240,1903.0
48.233019509,1859.0
48.249730778,1880.0
48.266442047,1919.0
48.283153316,1911.0
48.299864585,1829.0
48.316575854,1907.0
48.333287123,1915.0
48.349998392,1839.0
48.366709661,1929.0
48.383420930,1871.0
48.400132199,1811.0
48.416843468,1897.0
48.433554737,1992.0
48.450266006,1877.0
48.466977275,1942.0
48.483688544,1882.0
48.500399813,1859.0
48.517111082,1903.0
48.533822351,1856.0
48.550533620,1923.0
48.567244889,1898.0
48.583956158,1879.0
48.600667427,1920.0
48.617378696,1809.0
48.634089965,1875.0
48.650801234,1861.0
48.667512503,1819.0
48.684223772,1903.0
48.700935041,1851.0
48.717646310,1859.0
48.734357579,1764.0
48.751068848,1837.0
48.767780117,1949.0
48.784491386,1811.0
48.801202655,1847.0
48.817913924,1870.0
48.834625193,1909.0
48.851336462,1874.0
48.868047731,1869.0
48.884759000,1815.0
48.901470269,1852.0
48.918181538,1877.0
48.934892807,1831.0
48.951604076,1911.0
48.968315344,1839.0
48.985026613,1884.0
49.001737882,1827.0
49.018449151,1785.0
49.035160420,1861.0
49.051871689,1855.0
49.068582958,1845.0
49.085294227,1864.0
49.102005496,1877.0
49.118716765,1936.0
49.135428034,1881.0
49.152139303,1878.0
49.168850572,1844.0
49.185561841,2011.0
49.202273110,1954.0
49.218984379,1884.0
49.235695648,1919.0
49.252406917,1841.0
49.269118186,1933.0
49.285829455,1878.0
49.302540724,1900.0
49.319251993,1928.0
49.335963262,1908.0
49.352674531,1945.0
49.369385800,2015.0
49.386097069,1902.0
49.402808338,1974.0
49.419519607,1983.0
49.436230876,2017.0
49.452942145,2008.0
49.469653414,1924.0
49.486364683,1964.0
49.503075952,1987.0
49.519787221,1938.0
49.536498490,2039.0
49.553209759,2017.0
49.569921028,1949.0
49.586632297,1928.0
49.603343566,1903.0
49.620054835,1852.0
49.636766104,1872.0
49.653477373,1899.0
49.670188642,1903.0
49.686899911,1999.0
49.703611180,1914.0
49.720322449,1875.0
49.737033717,1912.0
49.753744986,1883.0
49.770456255,1885.0
49.787167524,1776.0
49.803878793,1872.0
49.820590062,1890.0
49.837301331,1873.0
49.854012600,1866.0
49.870723869,1900.0
49.887435138,1846.0
49.904146407,1843.0
49.920857676,1785.0
49.937568945,1908.0
49.954280214,1864.0
49.970991483,1901.0
49.987702752,1847.0
50.004414021,1873.0
50.021125290,1869.0
50.037836559,1926.0
50.054547828,1875.0
50.071259097,1905.0
50.087970366,1844.0
50.104681635,1892.0
50.121392904,1888.0
50.138104173,1891.0
50.154815442,1907.0
50.171526711,1898.0
50.188237980,1987.0
50.204949249,1957.0
50.221660518,1964.0
50.238371787,1984.0
50.255083056,1979.0
50.271794325,1978.0
50.288505594,2069.0
50.305216863,2019.0
50.321928132,2123.0
50.338639401,2128.0
50.355350670,2233.0
50.372061939,2271.0
50.388773208,2231.0
50.405484477,2307.0
50.422195746,2204.0
50.438907015,2298.0
50.455618284,2224.0
50.472329553,2274.0
50.489040821,2138.0
50.505752090,2209.0
50.522463359,2249.0
50.539174628,2156.0
50.555885897,2139.0
50.572597166,2179.0
50.589308435,2028.0
50.606019704,2055.0
50.622730973,2069.0
50.639442242,2046.0
50.656153511,2074.0
50.672864780,1995.0
50.689576049,1997.0
50.706287318,2001.0
50.722998587,1991.0
50.739709856,1959.0
50.756421125,1925.0
50.773132394,1996.0
50.789843663,1940.0
50.806554932,2036.0
50.823266201,2009.0
50.839977470,1958.0
50.856688739,2020.0
50.873400008,2024.0
50.890111277,2031.0
50.906822546,1939.0
50.923533815,2005.0
50.940245084,1960.0
50.956956353,1923.0
50.973667622,2037.0
50.990378891,2087.0
51.007090160,2048.0
51.023801429,2086.0
51.040512698,2145.0
51.057223967,2113.0
51.073935236,2145.0
51.090646505,2196.0
51.107357774,2277.0
51.124069043,2221.0
51.140780312,2221.0
51.157491581,2304.0
51.174202850,2414.0
51.190914119,2393.0
51.207625388,2451.0
51.224336657,2493.0
51.241047926,2548.0
51.257759194,2665.0
51.274470463,2634.0
51.291181732,2783.0
51.307893001,2859.0
51.324604270,2953.0
51.341315539,3140.0
51.358026808,3254.0
51.374738077,3363.0
51.391449346,3463.0
51.408160615,3622.0
51.424871884,3818.0
51.441583153,3905.0
51.458294422,4011.0
51.475005691,4196.0
51.491716960,4173.0
51.508428229,4251.0
51.525139498,4343.0
51.541850767,4374.0
51.558562036,4243.0
51.575273305,4288.0
51.591984574,4246.0
51.608695843,4210.0
51.625407112,4003.0
51.642118381,4066.0
51.658829650,3718.0
51.675540919,3789.0
51.692252188,3515.0
51.708963457,3308.0
51.725674726,3226.0
51.742385995,3122.0
51.759097264,3024.0
51.775808533,2788.0
51.792519802,2808.0
51.809231071,2717.0
51.825942340,2535.0
51.842653609,2460.0
51.859364878,2402.0
51.876076147,2328.0
51.892787416,2337.0
51.909498685,2234.0
51.926209954,2106.0
51.942921223,2085.0
51.959632492,2122.0
51.976343761,2090.0
51.993055030,1989.0
52.009766299,2045.0
52.026477567,1954.0
52.043188836,1940.0
52.059900105,2008.0
52.076611374,1999.0
52.093322643,1956.0
52.110033912,1877.0
52.126745181,1827.0
52.143456450,1961.0
52.160167719,1849.0
52.176878988,1900.0
52.193590257,1916.0
52.210301526,1808.0
52.227012795,1857.0
52.243724064,1915.0
52.260435333,1822.0
52.277146602,1904.0
52.293857871,1905.0
52.310569140,1838.0
52.327280409,1819.0
52.343991678,1833.0
52.360702947,1830.0
52.377414216,1833.0
52.394125485,1826.0
52.410836754,1799.0
52.427548023,1802.0
52.444259292,1888.0
52.460970561,1808.0
52.477681830,1797.0
52.494393099,1807.0
52.511104368,1866.0
52.527815637,1800.0
52.544526906,1888.0
52.561238175,1907.0
52.577949444,1806.0
52.594660713,1841.0
52.611371982,1815.0
52.628083251,1803.0
52.644794520,1832.0
52.661505789,1906.0
52.678217058,1827.0
52.694928327,1783.0
52.711639596,1807.0
52.728350865,1799.0
52.745062134,1848.0
52.761773403,1765.0
52.778484671,1846.0
52.795195940,1789.0
52.811907209,1782.0
52.828618478,1843.0
52.845329747,1798.0
52.862041016,1848.0
52.878752285,1886.0
52.895463554,1829.0
52.912174823,1783.0
52.928886092,1805.0
52.945597361,1843.0
52.962308630,1795.0
52.979019899,1743.0
52.995731168,1856.0
53.012442437,1836.0
53.029153706,1703.0
53.045864975,1773.0
53.062576244,1785.0
53.079287513,1870.0
53.095998782,1764.0
53.112710051,1768.0
53.129421320,1749.0
53.146132589,1764.0
53.162843858,1783.0
53.179555127,1825.0
53.196266396,1824.0
53.212977665,1815.0
53.229688934,1762.0
53.246400203,1855.0
53.263111472,1810.0
53.279822741,1751.0
53.296534010,1757.0
53.313245279,1777.0
53.329956548,1849.0
53.346667817,1738.0
53.363379086,1764.0
53.380090355,1822.0
53.396801624,1870.0
53.413512893,1797.0
53.430224162,1799.0
53.446935431,1800.0
53.463646700,1801.0
53.480357969,1777.0
53.497069238,1810.0
53.513780507,1791.0
53.530491776,1849.0
53.547203044,1817.0
53.563914313,1804.0
53.580625582,1773.0
53.597336851,1786.0
53.614048120,1779.0
53.630759389,1819.0
53.647470658,1851.0
53.664181927,1869.0
53.680893196,1908.0
53.697604465,1743.0
53.714315734,1777.0
53.731027003,1785.0
53.747738272,1802.0
53.764449541,1748.0
53.781160810,1733.0
53.797872079,1793.0
53.814583348,1749.0
53.831294617,1799.0
53.848005886,1737.0
53.864717155,1850.0
53.881428424,1827.0
53.898139693,1705.0
53.914850962,1770.0
53.931562231,1756.0
53.948273500,1788.0
53.964984769,1729.0
53.981696038,1776.0
53.998407307,1793.0
54.015118576,1793.0
54.031829845,1809.0
54.048541114,1788.0
54.065252383,1793.0
54.081963652,1809.0
54.098674921,1804.0
54.115386190,1820.0
54.132097459,1799.0
54.148808728,1848.0
54.165519997,1793.0
54.182231266,1902.0
54.198942535,1876.0
54.215653804,1722.0
54.232365073,1808.0
54.249076342,1775.0
54.265787611,1754.0
54.282498880,1781.0
54.299210148,1847.0
54.315921417,1723.0
54.332632686,1781.0
54.349343955,1780.0
54.366055224,1837.0
54.382766493,1748.0
54.399477762,1817.0
54.416189031,1809.0
54.432900300,1800.0
54.449611569,1737.0
54.466322838,1782.0
54.483034107,1766.0
54.499745376,1749.0
54.516456645,1703.0
54.533167914,1732.0
54.549879183,1808.0
54.566590452,1821.0
54.583301721,1793.0
54.600012990,1783.0
54.616724259,1705.0
54.633435528,1786.0
54.650146797,1772.0
54.666858066,1713.0
54.683569335,1774.0
54.700280604,1802.0
54.716991873,1782.0
54.733703142,1727.0
54.750414411,1795.0
54.767125680,1713.0
54.783836949,1810.0
54.800548218,1856.0
54.817259487,1732.0
54.833970756,1873.0
54.850682025,1789.0
54.867393294,1705.0
54.884104563,1858.0
54.900815832,1717.0
54.917527101,1768.0
54.934238370,1713.0
54.950949639,1789.0
54.967660908,1832.0
54.984372177,1775.0
55.001083446,1699.0
55.017794715,1780.0
55.034505984,1767.0
55.051217253,1714.0
55.067928521,1819.0
55.084639790,1764.0
55.101351059,1752.0
55.118062328,1744.0
55.134773597,1771.0
55.151484866,1767.0
55.168196135,1808.0
55.184907404,1760.0
55.201618673,1719.0
55.218329942,1791.0
55.235041211,1818.0
55.251752480,1865.0
55.268463749,1741.0
55.285175018,1742.0
55.301886287,1764.0
55.318597556,1784.0
55.335308825,1769.0
55.352020094,1741.0
55.368731363,1769.0
55.385442632,1781.0
55.402153901,1740.0
55.418865170,1731.0
55.435576439,1807.0
55.452287708,1786.0
55.468998977,1751.0
55.485710246,1775.0
55.502421515,1761.0
55.519132784,1771.0
55.535844053,1741.0
55.552555322,1749.0
55.569266591,1799.0
55.585977860,1776.0
55.602689129,1750.0
55.619400398,1730.0
55.636111667,1783.0
55.652822936,1781.0
55.669534205,1773.0
55.686245474,1800.0
55.702956743,1758.0
55.719668012,1743.0
55.736379281,1761.0
55.753090550,1734.0
55.769801819,1757.0
55.786513088,1712.0
55.803224357,1784.0
55.819935625,1749.0
55.836646894,1824.0
55.853358163,1734.0
55.870069432,1873.0
55.886780701,1819.0
55.903491970,1814.0
55.920203239,1735.0
55.936914508,1802.0
55.953625777,1793.0
55.970337046,1751.0
55.987048315,1767.0
56.003759584,1810.0
56.020470853,1809.0
56.037182122,1790.0
56.053893391,1789.0
56.070604660,1750.0
56.087315929,1742.0
56.104027198,1731.0
56.120738467,1771.0
56.137449736,1816.0
56.154161005,1772.0
56.170872274,1728.0
56.187583543,1720.0
56.204294812,1717.0
56.221006081,1814.0
56.237717350,1710.0
56.254428619,1830.0
56.271139888,1678.0
56.287851157,1752.0
56.304562426,1712.0
56.321273695,1814.0
56.337984964,1769.0
56.354696233,1645.0
56.371407502,1729.0
56.388118771,1729.0
56.404830040,1754.0
56.421541309,1780.0
56.438252578,1745.0
56.454963847,1754.0
56.471675116,1774.0
56.488386385,1763.0
56.505097654,1712.0
56.521808923,1739.0
56.538520192,1758.0
56.555231461,1801.0
56.571942730,1726.0
56.588653998,1762.0
56.605365267,1677.0
56.622076536,1771.0
56.638787805,1783.0
56.655499074,1793.0
56.672210343,1820.0
56.688921612,1675.0
56.705632881,1728.0
56.722344150,1776.0
56.739055419,1814.0
56.755766688,1814.0
56.772477957,1743.0
56.789189226,1746.0
56.805900495,1780.0
56.822611764,1807.0
56.839323033,1766.0
56.856034302,1708.0
56.872745571,1791.0
56.889456840,1765.0
56.906168109,1747.0
56.922879378,1809.0
56.939590647,1757.0
56.956301916,1807.0
56.973013185,1750.0
56.989724454,1747.0
57.006435723,1776.0
57.023146992,1731.0
57.039858261,1752.0
57.056569530,1751.0
57.073280799,1760.0
57.089992068,1753.0
57.106703337,1765.0
57.123414606,1701.0
57.140125875,1679.0
57.156837144,1707.0
57.173548413,1822.0
57.190259682,1757.0
57.206970951,1706.0
57.223682220,1784.0
57.240393489,1880.0
57.257104758,1835.0
57.273816027,1725.0
57.290527296,1860.0
57.307238565,1715.0
57.323949834,1790.0
57.340661102,1817.0
57.357372371,1748.0
57.374083640,1708.0
57.390794909,1804.0
57.407506178,1781.0
57.424217447,1739.0
57.440928716,1780.0
57.457639985,1735.0
57.474351254,1703.0
57.491062523,1819.0
57.507773792,1793.0
57.524485061,1822.0
57.541196330,1751.0
57.557907599,1758.0
57.574618868,1809.0
57.591330137,1737.0
57.608041406,1815.0
57.624752675,1704.0
57.641463944,1809.0
57.658175213,1768.0
57.674886482,1763.0
57.691597751,1831.0
57.708309020,1752.0
57.725020289,1726.0
57.741731558,1771.0
57.758442827,1817.0
57.775154096,1783.0
57.791865365,1891.0
57.808576634,1716.0
57.825287903,1774.0
57.841999172,1720.0
57.858710441,1796.0
57.875421710,1775.0
57.892132979,1808.0
57.908844248,1755.0
57.925555517,1741.0
57.942266786,1722.0
57.958978055,1789.0
57.975689324,1787.0
57.992400593,1760.0
58.009111862,1800.0
58.025823131,1783.0
58.042534400,1796.0
58.059245669,1761.0
58.075956938,1730.0
58.092668207,1781.0
58.109379475,1859.0
58.126090744,1796.0
58.142802013,1785.0
58.159513282,1734.0
58.176224551,1801.0
58.192935820,1710.0
58.209647089,1758.0
58.226358358,1709.0
58.243069627,1787.0
58.259780896,1762.0
58.276492165,1712.0
58.293203434,1777.0
58.309914703,1751.0
58.326625972,1721.0
58.343337241,1770.0
58.360048510,1872.0
58.376759779,1743.0
58.393471048,1794.0
58.410182317,1706.0
58.426893586,1805.0
58.443604855,1826.0
58.460316124,1783.0
58.477027393,1836.0
58.493738662,1782.0
58.510449931,1827.0
58.527161200,1755.0
58.543872469,1755.0
58.560583738,1764.0
58.577295007,1777.0
58.594006276,1760.0
58.610717545,1731.0
58.627428814,1775.0
58.644140083,1748.0
58.660851352,1834.0
58.677562621,1840.0
58.694273890,1758.0
58.710985159,1710.0
58.727696428,1728.0
58.744407697,1852.0
58.761118966,1804.0
58.777830235,1901.0
58.794541504,1825.0
58.811252773,1779.0
58.827964042,1781.0
58.844675311,1788.0
58.861386579,1827.0
58.878097848,1753.0
58.894809117,1695.0
58.911520386,1828.0
58.928231655,1721.0
58.944942924,1831.0
58.961654193,1807.0
58.978365462,1858.0
58.995076731,1765.0
59.011788000,1771.0
59.028499269,1775.0
59.045210538,1766.0
59.061921807,1765.0
59.078633076,1791.0
59.095344345,1799.0
59.112055614,1852.0
59.128766883,1714.0
59.145478152,1789.0
59.162189421,1765.0
59.178900690,1867.0
59.195611959,1812.0
59.212323228,1756.0
59.229034497,1860.0
59.245745766,1777.0
59.262457035,1792.0
59.279168304,1753.0
59.295879573,1797.0
59.312590842,1739.0
59.329302111,1830.0
59.346013380,1813.0
59.362724649,1742.0
59.379435918,1759.0
59.396147187,1852.0
59.412858456,1817.0
59.429569725,1729.0
59.446280994,1761.0
59.462992263,1784.0
59.479703532,1828.0
59.496414801,1814.0
59.513126070,1813.0
59.529837339,1800.0
59.546548608,1767.0
59.563259877,1816.0
59.579971146,1834.0
59.596682415,1789.0
59.613393684,1773.0
59.630104952,1814.0
59.646816221,1844.0
59.663527490,1870.0
59.680238759,1767.0
59.696950028,1876.0
59.713661297,1780.0
59.730372566,1834.0
59.747083835,1750.0
59.763795104,1904.0
59.780506373,1791.0
59.797217642,1794.0
59.813928911,1831.0
59.830640180,1835.0
59.847351449,1828.0
59.864062718,1806.0
59.880773987,1770.0
59.897485256,1843.0
59.914196525,1803.0
59.930907794,1761.0
59.947619063,1772.0
59.964330332,1840.0
59.981041601,1787.0
59.997752870,1797.0
60.014464139,1800.0
60.031175408,1753.0
60.047886677,1765.0
60.064597946,1785.0
60.081309215,1853.0
60.098020484,1742.0
60.114731753,1783.0
60.131443022,1768.0
60.148154291,1815.0
60.164865560,1747.0
60.181576829,1799.0
60.198288098,1789.0
60.214999367,1893.0
60.231710636,1863.0
60.248421905,1828.0
60.265133174,1802.0
60.281844443,1744.0
60.298555712,1817.0
60.315266981,1821.0
60.331978250,1803.0
60.348689519,1807.0
60.365400788,1855.0
60.382112056,1790.0
60.398823325,1874.0
60.415534594,1790.0
60.432245863,1815.0
60.448957132,1809.0
60.465668401,1851.0
60.482379670,1830.0
60.499090939,1795.0
60.515802208,1824.0
60.532513477,1843.0
60.549224746,1800.0
60.565936015,1848.0
60.582647284,1815.0
60.599358553,1845.0
60.616069822,1812.0
60.632781091,1881.0
60.649492360,1818.0
60.666203629,1872.0
60.682914898,1859.0
60.699626167,1820.0
60.716337436,1790.0
60.733048705,1837.0
60.749759974,1860.0
60.766471243,1772.0
60.783182512,1872.0
60.799893781,1834.0
60.816605050,1834.0
60.833316319,1844.0
60.850027588,1810.0
60.866738857,1843.0
60.883450126,1853.0
60.900161395,1817.0
60.916872664,1854.0
60.933583933,1832.0
60.950295202,1847.0
60.967006471,1864.0
60.983717740,1869.0
61.000429009,1889.0
61.017140278,1902.0
61.033851547,1788.0
61.050562816,1915.0
61.067274085,1867.0
61.083985354,1907.0
61.100696623,1868.0
61.117407892,1859.0
61.134119161,1810.0
61.150830429,1778.0
61.167541698,1769.0
61.184252967,1938.0
61.200964236,1819.0
61.217675505,1800.0
61.234386774,1887.0
61.251098043,1824.0
61.267809312,1849.0
61.284520581,1902.0
61.301231850,1788.0
61.317943119,1842.0
61.334654388,1873.0
61.351365657,1777.0
61.368076926,1854.0
61.384788195,1852.0
61.401499464,1790.0
61.418210733,1843.0
61.434922002,1875.0
61.451633271,1857.0
61.468344540,1857.0
61.485055809,1843.0
61.501767078,1859.0
61.518478347,1872.0
61.535189616,1884.0
61.551900885,1888.0
61.568612154,1882.0
61.585323423,1902.0
61.602034692,1900.0
61.618745961,1899.0
61.635457230,1807.0
61.652168499,1797.0
61.668879768,1820.0
61.685591037,1803.0
61.702302306,1883.0
61.719013575,1952.0
61.735724844,1877.0
61.752436113,1850.0
61.769147382,1951.0
61.785858651,1940.0
61.802569920,1894.0
61.819281189,1857.0
61.835992458,1847.0
61.852703727,1793.0
61.869414996,1838.0
61.886126265,1890.0
61.902837533,1915.0
61.919548802,1940.0
61.936260071,1874.0
61.952971340,1871.0
61.969682609,1932.0
61.986393878,1887.0
62.003105147,1918.0
62.019816416,1982.0
62.036527685,1919.0
62.053238954,1921.0
62.069950223,1947.0
62.086661492,1884.0
62.103372761,1868.0
62.120084030,1902.0
62.136795299,1899.0
62.153506568,1893.0
62.170217837,1964.0
62.186929106,1938.0
62.203640375,1962.0
62.220351644,1850.0
62.237062913,1918.0
62.253774182,1941.0
62.270485451,1918.0
62.287196720,1916.0
62.303907989,1969.0
62.320619258,1873.0
62.337330527,2011.0
62.354041796,1921.0
62.370753065,1834.0
62.387464334,1830.0
62.404175603,1959.0
62.420886872,1858.0
62.437598141,1863.0
62.454309410,1878.0
62.471020679,1963.0
62.487731948,1947.0
62.504443217,1895.0
62.521154486,1893.0
62.537865755,1925.0
62.554577024,1959.0
62.571288293,1986.0
62.587999562,1980.0
62.604710831,1937.0
62.621422100,1979.0
62.638133369,1944.0
62.654844638,1966.0
62.671555906,2001.0
62.688267175,1984.0
62.704978444,2056.0
62.721689713,1993.0
62.738400982,1942.0
62.755112251,1900.0
62.771823520,1944.0
62.788534789,1902.0
62.805246058,1989.0
62.821957327,1906.0
62.838668596,1949.0
62.855379865,1987.0
62.872091134,1938.0
62.888802403,1876.0
62.905513672,1882.0
62.922224941,1948.0
62.938936210,1897.0
62.955647479,2038.0
62.972358748,1946.0
62.989070017,1919.0
63.005781286,1970.0
63.022492555,1878.0
63.039203824,1990.0
63.055915093,1941.0
63.072626362,1978.0
63.089337631,1955.0
63.106048900,1973.0
63.122760169,1931.0
63.139471438,1968.0
63.156182707,1965.0
63.172893976,1949.0
63.189605245,1875.0
63.206316514,1882.0
63.223027783,1981.0
63.239739052,1908.0
63.256450321,1963.0
63.273161590,1910.0
63.289872859,1938.0
63.306584128,1928.0
63.323295397,2001.0
63.340006666,1964.0
63.356717935,2015.0
63.373429204,1910.0
63.390140473,1957.0
63.406851742,1981.0
63.423563010,1967.0
63.440274279,1959.0
63.456985548,1918.0
63.473696817,1946.0
63.490408086,1965.0
63.507119355,1994.0
63.523830624,1939.0
63.540541893,1922.0
63.557253162,1984.0
63.573964431,1886.0
63.590675700,1993.0
63.607386969,2035.0
63.624098238,1953.0
63.640809507,2034.0
63.657520776,2001.0
63.674232045,1946.0
63.690943314,1990.0
63.707654583,1975.0
63.724365852,2005.0
63.741077121,2042.0
63.757788390,2003.0
63.774499659,2004.0
63.791210928,1899.0
63.807922197,1986.0
63.824633466,2019.0
63.841344735,2002.0
63.858056004,1975.0
63.874767273,1985.0
63.891478542,2037.0
63.908189811,2011.0
63.924901080,2036.0
63.941612349,1996.0
63.958323618,1927.0
63.975034887,2001.0
63.991746156,2037.0
64.008457425,2005.0
64.025168694,2018.0
64.041879963,1961.0
64.058591232,2029.0
64.075302501,2020.0
64.092013770,1994.0
64.108725039,2039.0
64.125436308,1982.0
64.142147577,1964.0
64.158858846,1925.0
64.175570115,2026.0
64.192281383,1994.0
64.208992652,2050.0
64.225703921,2071.0
64.242415190,1979.0
64.259126459,2024.0
64.275837728,2038.0
64.292548997,1998.0
64.309260266,1975.0
64.325971535,2049.0
64.342682804,2068.0
64.359394073,2008.0
64.376105342,2065.0
64.392816611,2062.0
64.409527880,2046.0
64.426239149,2067.0
64.442950418,2021.0
64.459661687,2044.0
64.476372956,1973.0
64.493084225,2081.0
64.509795494,2015.0
64.526506763,1938.0
64.543218032,2034.0
64.559929301,1986.0
64.576640570,2128.0
64.593351839,2051.0
64.610063108,2041.0
64.626774377,2066.0
64.643485646,1957.0
64.660196915,2009.0
64.676908184,1993.0
64.693619453,1924.0
64.710330722,2143.0
64.727041991,2055.0
64.743753260,2016.0
64.760464529,2094.0
64.777175798,2020.0
64.793887067,2218.0
64.810598336,2058.0
64.827309605,2000.0
64.844020874,2051.0
64.860732143,2076.0
64.877443412,2074.0
64.894154681,2047.0
64.910865950,2062.0
64.927577219,2051.0
64.944288487,2015.0
64.960999756,1992.0
64.977711025,2089.0
64.994422294,2061.0
65.011133563,2027.0
65.027844832,2069.0
65.044556101,2091.0
65.061267370,2084.0
65.077978639,2076.0
65.094689908,2017.0
65.111401177,2009.0
65.128112446,2061.0
65.144823715,2109.0
65.161534984,2082.0
65.178246253,2094.0
65.194957522,2035.0
65.211668791,2076.0
65.228380060,1994.0
65.245091329,2102.0
65.261802598,2068.0
65.278513867,2044.0
65.295225136,2120.0
65.311936405,2057.0
65.328647674,2137.0
65.345358943,2104.0
65.362070212,2064.0
65.378781481,2069.0
65.395492750,2070.0
65.412204019,2020.0
65.428915288,2149.0
65.445626557,2132.0
65.462337826,2071.0
65.479049095,1965.0
65.495760364,2056.0
65.512471633,2048.0
65.529182902,2080.0
65.545894171,2013.0
65.562605440,2098.0
65.579316709,2168.0
65.596027978,1995.0
65.612739247,2026.0
65.629450516,2057.0
65.646161785,2133.0
65.662873054,2008.0
65.679584323,2147.0
65.696295592,2068.0
65.713006860,2136.0
65.729718129,2151.0
65.746429398,2024.0
65.763140667,2035.0
65.779851936,2123.0
65.796563205,2127.0
65.813274474,2074.0
65.829985743,2024.0
65.846697012,2056.0
65.863408281,2099.0
65.880119550,2046.0
65.896830819,2008.0
65.913542088,2092.0
65.930253357,2138.0
65.946964626,2067.0
65.963675895,2168.0
65.980387164,2066.0
65.997098433,2093.0
66.013809702,2122.0
66.030520971,2159.0
66.047232240,2120.0
66.063943509,2117.0
66.080654778,2153.0
66.097366047,2080.0
66.114077316,2150.0
66.130788585,2179.0
66.147499854,2146.0
66.164211123,2092.0
66.180922392,2186.0
66.197633661,2017.0
66.214344930,2065.0
66.231056199,2134.0
66.247767468,2117.0
66.264478737,2065.0
66.281190006,2212.0
66.297901275,2081.0
66.314612544,2006.0
66.331323813,2064.0
66.348035082,2093.0
66.364746351,2168.0
66.381457620,2174.0
66.398168889,2069.0
66.414880158,2124.0
66.431591427,2112.0
66.448302696,2151.0
66.465013964,2018.0
66.481725233,2226.0
66.498436502,2084.0
66.515147771,2076.0
66.531859040,2074.0
66.548570309,2157.0
66.565281578,2058.0
66.581992847,2069.0
66.598704116,2086.0
66.615415385,2141.0
66.632126654,2008.0
66.648837923,2074.0
66.665549192,2145.0
66.682260461,2129.0
66.698971730,2020.0
66.715682999,2036.0
66.732394268,2126.0
66.749105537,2097.0
66.765816806,2038.0
66.782528075,2138.0
66.799239344,1991.0
66.815950613,2052.0
66.832661882,2087.0
66.849373151,2044.0
66.866084420,2072.0
66.882795689,2066.0
66.899506958,2023.0
66.916218227,2141.0
66.932929496,2219.0
66.949640765,2067.0
66.966352034,2157.0
66.983063303,2168.0
66.999774572,2166.0
67.016485841,2123.0
67.033197110,2116.0
67.049908379,2069.0
67.066619648,1981.0
67.083330917,2091.0
67.100042186,2159.0
67.116753455,2032.0
67.133464724,2064.0
67.150175993,2173.0
67.166887262,2190.0
67.183598531,2127.0
67.200309800,2127.0
67.217021069,2059.0
67.233732337,2012.0
67.250443606,2112.0
67.267154875,2078.0
67.283866144,2116.0
67.300577413,2095.0
67.317288682,2058.0
67.333999951,2222.0
67.350711220,2083.0
67.367422489,2070.0
67.384133758,2156.0
67.400845027,2086.0
67.417556296,2091.0
67.434267565,2141.0
67.450978834,2126.0
67.467690103,2060.0
67.484401372,2145.0
67.501112641,2147.0
67.517823910,2100.0
67.534535179,2126.0
67.551246448,2042.0
67.567957717,2239.0
67.584668986,2157.0
67.601380255,2161.0
67.618091524,2142.0
67.634802793,2095.0
67.651514062,2109.0
67.668225331,2172.0
67.684936600,2082.0
67.701647869,2094.0
67.718359138,2120.0
67.735070407,2063.0
67.751781676,2100.0
67.768492945,2096.0
67.785204214,2130.0
67.801915483,2149.0
67.818626752,2098.0
67.835338021,2152.0
67.852049290,2102.0
67.868760559,2143.0
67.885471828,2108.0
67.902183097,2142.0
67.918894366,2106.0
67.935605635,2131.0
67.952316904,2193.0
67.969028173,2108.0
67.985739441,2102.0
68.002450710,2094.0
68.019161979,2107.0
68.035873248,2090.0
68.052584517,2113.0
68.069295786,2081.0
68.086007055,2062.0
68.102718324,2117.0
68.119429593,2047.0
68.136140862,2143.0
68.152852131,2193.0
68.169563400,2066.0
68.186274669,2087.0
68.202985938,2197.0
68.219697207,2108.0
68.236408476,2081.0
68.253119745,2082.0
68.269831014,2084.0
68.286542283,2155.0
68.303253552,2076.0
68.319964821,2059.0
68.336676090,2181.0
68.353387359,2075.0
68.370098628,2035.0
68.386809897,2102.0
68.403521166,2068.0
68.420232435,2058.0
68.436943704,2097.0
68.453654973,2072.0
68.470366242,2061.0
68.487077511,2065.0
68.503788780,2189.0
68.520500049,2096.0
68.537211318,2117.0
68.553922587,2058.0
68.570633856,2031.0
68.587345125,2178.0
68.604056394,2116.0
68.620767663,2175.0
68.637478932,2103.0
68.654190201,2098.0
68.670901470,2137.0
68.687612739,2114.0
68.704324008,2074.0
68.721035277,2114.0
68.737746546,2058.0
68.754457814,2137.0
68.771169083,2158.0
68.787880352,2165.0
68.804591621,2141.0
68.821302890,2068.0
68.838014159,2107.0
68.854725428,2020.0
68.871436697,2072.0
68.888147966,2070.0
68.904859235,2147.0
68.921570504,2082.0
68.938281773,2010.0
68.954993042,2120.0
68.971704311,2083.0
68.988415580,2099.0
69.005126849,2063.0
69.021838118,2107.0
69.038549387,2040.0
69.055260656,2004.0
69.071971925,2094.0
69.088683194,2144.0
69.105394463,2126.0
69.122105732,2157.0
69.138817001,2062.0
69.155528270,2139.0
69.172239539,2138.0
69.188950808,1987.0
69.205662077,2094.0
69.222373346,2111.0
69.239084615,2061.0
69.255795884,2023.0
69.272507153,2176.0
69.289218422,2121.0
69.305929691,2068.0
69.322640960,2029.0
69.339352229,2095.0
69.356063498,1965.0
69.372774767,2044.0
69.389486036,2128.0
69.406197305,2061.0
69.422908574,1978.0
69.439619843,2015.0
69.456331112,2131.0
69.473042381,2056.0
69.489753650,2087.0
69.506464919,2072.0
69.523176187,2125.0
69.539887456,2098.0
69.556598725,2106.0
69.573309994,2050.0
69.590021263,2107.0
69.606732532,2020.0
69.623443801,2053.0
69.640155070,1984.0
69.656866339,2058.0
69.673577608,2061.0
69.690288877,2061.0
69.707000146,2049.0
69.723711415,2091.0
69.740422684,2157.0
69.757133953,1979.0
69.773845222,1993.0
69.790556491,2033.0
69.807267760,2072.0
69.823979029,2146.0
69.840690298,2093.0
69.857401567,2040.0
69.874112836,2090.0
69.890824105,2059.0
69.907535374,2112.0
69.924246643,2156.0
69.940957912,2038.0
69.957669181,2115.0
69.974380450,2038.0
69.991091719,2056.0
70.007802988,2004.0
70.024514257,1978.0
70.041225526,1994.0
70.057936795,2042.0
70.074648064,2001.0
70.091359333,2001.0
70.108070602,2044.0
70.124781871,1988.0
70.141493140,2108.0
70.158204409,2082.0
70.174915678,2084.0
70.191626947,2008.0
70.208338216,2030.0
70.225049485,2067.0
70.241760754,2104.0
70.258472023,1973.0
70.275183291,2073.0
70.291894560,2128.0
70.308605829,2095.0
70.325317098,2044.0
70.342028367,2062.0
70.358739636,2025.0
70.375450905,2038.0
70.392162174,2025.0
70.408873443,2040.0
70.425584712,2016.0
70.442295981,1980.0
70.459007250,2028.0
70.475718519,2034.0
70.492429788,2048.0
70.509141057,2014.0
70.525852326,2082.0
70.542563595,2017.0
70.559274864,2000.0
70.575986133,2004.0
70.592697402,1978.0
70.609408671,2010.0
70.626119940,2056.0
70.642831209,2033.0
70.659542478,2029.0
70.676253747,2043.0
70.692965016,2042.0
70.709676285,2026.0
70.726387554,2045.0
70.743098823,2008.0
70.759810092,2019.0
70.776521361,1988.0
70.793232630,1960.0
70.809943899,1986.0
70.826655168,2011.0
70.843366437,2039.0
70.860077706,1954.0
70.876788975,1958.0
70.893500244,2045.0
70.910211513,2029.0
70.926922782,1966.0
70.943634051,2006.0
70.960345320,1946.0
70.977056589,2029.0
70.993767858,2057.0
71.010479127,1993.0
71.027190396,2002.0
71.043901664,1990.0
71.060612933,1959.0
71.077324202,2012.0
71.094035471,1944.0
71.110746740,1997.0
71.127458009,1963.0
71.144169278,2027.0
71.160880547,1979.0
71.177591816,2014.0
71.194303085,2029.0
71.211014354,2047.0
71.227725623,2000.0
71.244436892,2004.0
71.261148161,2003.0
71.277859430,1972.0
71.294570699,2127.0
71.311281968,2003.0
71.327993237,2013.0
71.344704506,1982.0
71.361415775,2007.0
71.378127044,1982.0
71.394838313,1973.0
71.411549582,1950.0
71.428260851,1953.0
71.444972120,2003.0
71.461683389,2042.0
71.478394658,1956.0
71.495105927,1978.0
71.511817196,1978.0
71.528528465,2033.0
71.545239734,1915.0
71.561951003,1835.0
71.578662272,1937.0
71.595373541,1993.0
71.612084810,2001.0
71.628796079,2021.0
71.645507348,1958.0
71.662218617,1938.0
71.678929886,1928.0
71.695641155,2027.0
71.712352424,1999.0
71.729063693,1961.0
71.745774962,1983.0
71.762486231,1906.0
71.779197500,1909.0
71.795908768,1957.0
71.812620037,1847.0
71.829331306,1990.0
71.846042575,1952.0
71.862753844,1955.0
71.879465113,1913.0
71.896176382,1981.0
71.912887651,1948.0
71.929598920,1906.0
71.946310189,1920.0
71.963021458,1877.0
71.979732727,1922.0
71.996443996,1982.0
72.013155265,1874.0
72.029866534,2005.0
72.046577803,1928.0
72.063289072,1933.0
72.080000341,1910.0
72.096711610,1916.0
72.113422879,1966.0
72.130134148,1919.0
72.146845417,1860.0
72.163556686,1946.0
72.180267955,1948.0
72.196979224,1833.0
72.213690493,1943.0
72.230401762,1854.0
72.247113031,1868.0
72.263824300,1914.0
72.280535569,1924.0
72.297246838,1943.0
72.313958107,1937.0
72.330669376,1868.0
72.347380645,1957.0
72.364091914,2015.0
72.380803183,2009.0
72.397514452,1942.0
72.414225721,1922.0
72.430936990,1951.0
72.447648259,1945.0
72.464359528,1906.0
72.481070797,1923.0
72.497782066,1965.0
72.514493335,1998.0
72.531204604,1951.0
72.547915873,1892.0
72.564627141,1921.0
72.581338410,1888.0
72.598049679,1928.0
72.614760948,1943.0
72.631472217,1854.0
72.648183486,1914.0
72.664894755,1875.0
72.681606024,1887.0
72.698317293,1841.0
72.715028562,1903.0
72.731739831,1836.0
72.748451100,1987.0
72.765162369,1880.0
72.781873638,1920.0
72.798584907,2011.0
72.815296176,1835.0
72.832007445,1924.0
72.848718714,1899.0
72.865429983,1898.0
72.882141252,1870.0
72.898852521,1878.0
72.915563790,1917.0
72.932275059,1958.0
72.948986328,1890.0
72.965697597,1930.0
72.982408866,1872.0
72.999120135,1886.0
73.015831404,1791.0
73.032542673,1852.0
73.049253942,1899.0
73.065965211,1808.0
73.082676480,1974.0
73.099387749,1923.0
73.116099018,1854.0
73.132810287,1903.0
73.149521556,1950.0
73.166232825,1845.0
73.182944094,1834.0
73.199655363,1884.0
73.216366632,1887.0
73.233077901,1889.0
73.249789170,1840.0
73.266500439,1883.0
73.283211708,1831.0
73.299922977,2007.0
73.316634245,1908.0
73.333345514,1907.0
73.350056783,1822.0
73.366768052,1933.0
73.383479321,1860.0
73.400190590,1868.0
73.416901859,1805.0
73.433613128,1942.0
73.450324397,1867.0
73.467035666,1875.0
73.483746935,1876.0
73.500458204,1831.0
73.517169473,1795.0
73.533880742,1727.0
73.550592011,1942.0
73.567303280,1876.0
73.584014549,1821.0
73.600725818,1842.0
73.617437087,1823.0
73.634148356,1894.0
73.650859625,1907.0
73.667570894,1865.0
73.684282163,1867.0
73.700993432,1860.0
73.717704701,1873.0
73.734415970,1837.0
73.751127239,1864.0
73.767838508,1847.0
73.784549777,1802.0
73.801261046,1872.0
73.817972315,1844.0
73.834683584,1825.0
73.851394853,1901.0
73.868106122,1850.0
73.884817391,1835.0
73.901528660,1848.0
73.918239929,1823.0
73.934951198,1881.0
73.951662467,1925.0
73.968373736,1788.0
73.985085005,1794.0
74.001796274,1811.0
74.018507543,1798.0
74.035218812,1883.0
74.051930081,1889.0
74.068641350,1927.0
74.085352618,1887.0
74.102063887,1853.0
74.118775156,1879.0
74.135486425,1822.0
74.152197694,1792.0
74.168908963,1834.0
74.185620232,1809.0
74.202331501,1857.0
74.219042770,1828.0
74.235754039,1832.0
74.252465308,1821.0
74.269176577,1868.0
74.285887846,1837.0
74.302599115,1816.0
74.319310384,1781.0
74.336021653,1734.0
74.352732922,1852.0
74.369444191,1771.0
74.386155460,1829.0
74.402866729,1808.0
74.419577998,1868.0
74.436289267,1808.0
74.453000536,1750.0
74.469711805,1779.0
74.486423074,1809.0
74.503134343,1865.0
74.519845612,1844.0
74.536556881,1903.0
74.553268150,1797.0
74.569979419,1800.0
74.586690688,1856.0
74.603401957,1813.0
74.620113226,1793.0
74.636824495,1815.0
74.653535764,1828.0
74.670247033,1770.0
74.686958302,1782.0
74.703669571,1783.0
74.720380840,1750.0
74.737092109,1735.0
74.753803378,1903.0
74.770514647,1786.0
74.787225916,1789.0
74.803937185,1793.0
74.820648454,1927.0
74.837359722,1808.0
74.854070991,1825.0
74.870782260,1819.0
74.887493529,1726.0
74.904204798,1712.0
74.920916067,1730.0
74.937627336,1802.0
74.954338605,1885.0
74.971049874,1855.0
74.987761143,1879.0
75.004472412,1803.0
75.021183681,1876.0
75.037894950,1827.0
75.054606219,1880.0
75.071317488,1770.0
75.088028757,1803.0
75.104740026,1819.0
75.121451295,1860.0
75.138162564,1842.0
75.154873833,1860.0
75.171585102,1927.0
75.188296371,1837.0
75.205007640,1841.0
75.221718909,1862.0
75.238430178,1884.0
75.255141447,1903.0
75.271852716,1900.0
75.288563985,1824.0
75.305275254,1846.0
75.321986523,1911.0
75.338697792,1814.0
75.355409061,1901.0
75.372120330,1822.0
75.388831599,1963.0
75.405542868,1947.0
75.422254137,1971.0
75.438965406,1939.0
75.455676675,1972.0
75.472387944,1951.0
75.489099213,1852.0
75.505810482,1890.0
75.522521751,1960.0
75.539233020,2006.0
75.555944289,1965.0
75.572655558,2013.0
75.589366827,2061.0
75.606078095,2106.0
75.622789364,2035.0
75.639500633,2078.0
75.656211902,2087.0
75.672923171,2009.0
75.689634440,2095.0
75.706345709,2213.0
75.723056978,2162.0
75.739768247,2180.0
75.756479516,2201.0
75.773190785,2323.0
75.789902054,2311.0
75.806613323,2407.0
75.823324592,2327.0
75.840035861,2357.0
75.856747130,2345.0
75.873458399,2426.0
75.890169668,2408.0
75.906880937,2355.0
75.923592206,2404.0
75.940303475,2307.0
75.957014744,2286.0
75.973726013,2274.0
75.990437282,2294.0
76.007148551,2238.0
76.023859820,2202.0
76.040571089,2224.0
76.057282358,2201.0
76.073993627,2162.0
76.090704896,2166.0
76.107416165,2124.0
76.124127434,2140.0
76.140838703,2121.0
76.157549972,2042.0
76.174261241,2073.0
76.190972510,2025.0
76.207683779,1915.0
76.224395048,1991.0
76.241106317,1928.0
76.257817586,1879.0
76.274528855,1928.0
76.291240124,1864.0
76.307951393,1846.0
76.324662662,1877.0
76.341373931,1801.0
76.358085199,1804.0
76.374796468,1772.0
76.391507737,1848.0
76.408219006,1828.0
76.424930275,1784.0
76.441641544,1873.0
76.458352813,1754.0
76.475064082,1709.0
76.491775351,1736.0
76.508486620,1740.0
76.525197889,1774.0
76.541909158,1714.0
76.558620427,1683.0
76.575331696,1777.0
76.592042965,1716.0
76.608754234,1687.0
76.625465503,1752.0
76.642176772,1744.0
76.658888041,1757.0
76.675599310,1767.0
76.692310579,1783.0
76.709021848,1778.0
76.725733117,1654.0
76.742444386,1744.0
76.759155655,1674.0
76.775866924,1689.0
76.792578193,1710.0
76.809289462,1736.0
76.826000731,1772.0
76.842712000,1759.0
76.859423269,1701.0
76.876134538,1705.0
76.892845807,1696.0
76.909557076,1689.0
76.926268345,1680.0
76.942979614,1645.0
76.959690883,1727.0
76.976402152,1738.0
76.993113421,1658.0
77.009824690,1720.0
77.026535959,1687.0
77.043247228,1625.0
77.059958497,1687.0
77.076669766,1712.0
77.093381035,1717.0
77.110092304,1637.0
77.126803572,1758.0
77.143514841,1739.0
77.160226110,1725.0
77.176937379,1709.0
77.193648648,1697.0
77.210359917,1648.0
77.227071186,1631.0
77.243782455,1605.0
77.260493724,1724.0
77.277204993,1692.0
77.293916262,1646.0
77.310627531,1662.0
77.327338800,1579.0
77.344050069,1520.0
77.360761338,1614.0
77.377472607,1699.0
77.394183876,1614.0
77.410895145,1652.0
77.427606414,1722.0
77.444317683,1623.0
77.461028952,1651.0
77.477740221,1598.0
77.494451490,1615.0
77.511162759,1645.0
77.527874028,1658.0
77.544585297,1607.0
77.561296566,1680.0
77.578007835,1642.0
77.594719104,1677.0
77.611430373,1688.0
77.628141642,1578.0
77.644852911,1556.0
77.661564180,1687.0
77.678275449,1656.0
77.694986718,1696.0
77.711697987,1603.0
77.728409256,1644.0
77.745120525,1575.0
77.761831794,1649.0
77.778543063,1610.0
77.795254332,1615.0
77.811965601,1573.0
77.828676870,1614.0
77.845388139,1662.0
77.862099408,1694.0
77.878810676,1689.0
77.895521945,1600.0
77.912233214,1651.0
77.928944483,1626.0
77.945655752,1597.0
77.962367021,1690.0
77.979078290,1593.0
77.995789559,1637.0
78.012500828,1609.0
78.029212097,1657.0
78.045923366,1623.0
78.062634635,1646.0
78.079345904,1644.0
78.096057173,1647.0
78.112768442,1646.0
78.129479711,1638.0
78.146190980,1618.0
78.162902249,1634.0
78.179613518,1600.0
78.196324787,1600.0
78.213036056,1562.0
78.229747325,1501.0
78.246458594,1621.0
78.263169863,1615.0
78.279881132,1615.0
78.296592401,1628.0
78.313303670,1578.0
78.330014939,1609.0
78.346726208,1660.0
78.363437477,1643.0
78.380148746,1623.0
78.396860015,1599.0
78.413571284,1614.0
78.430282553,1586.0
78.446993822,1595.0
78.463705091,1630.0
78.480416360,1510.0
78.497127629,1644.0
78.513838898,1600.0
78.530550167,1539.0
78.547261436,1588.0
78.563972705,1597.0
78.580683974,1631.0
78.597395243,1616.0
78.614106512,1631.0
78.630817781,1643.0
78.647529049,1587.0
78.664240318,1556.0
78.680951587,1563.0
78.697662856,1644.0
78.714374125,1560.0
78.731085394,1598.0
78.747796663,1556.0
78.764507932,1639.0
78.781219201,1653.0
78.797930470,1607.0
78.814641739,1598.0
78.831353008,1580.0
78.848064277,1619.0
78.864775546,1585.0
78.881486815,1565.0
78.898198084,1582.0
78.914909353,1554.0
78.931620622,1587.0
78.948331891,1689.0
78.965043160,1635.0
78.981754429,1612.0
78.998465698,1574.0
79.015176967,1602.0
79.031888236,1576.0
79.048599505,1549.0
79.065310774,1579.0
79.082022043,1614.0
79.098733312,1571.0
79.115444581,1552.0
79.132155850,1577.0
79.148867119,1612.0
79.165578388,1555.0
79.182289657,1630.0
79.199000926,1592.0
79.215712195,1600.0
79.232423464,1560.0
79.249134733,1658.0
79.265846002,1566.0
79.282557271,1541.0
79.299268540,1628.0
79.315979809,1604.0
79.332691078,1561.0
79.349402347,1611.0
79.366113616,1591.0
79.382824885,1631.0
79.399536153,1566.0
79.416247422,1557.0
79.432958691,1541.0
79.449669960,1583.0
79.466381229,1564.0
79.483092498,1499.0
79.499803767,1555.0
79.516515036,1612.0
79.533226305,1581.0
79.549937574,1581.0
79.566648843,1555.0
79.583360112,1558.0
79.600071381,1584.0
79.616782650,1518.0
79.633493919,1560.0
79.650205188,1583.0
79.666916457,1552.0
79.683627726,1550.0
79.700338995,1484.0
79.717050264,1517.0
79.733761533,1537.0
79.750472802,1605.0
79.767184071,1536.0
79.783895340,1522.0
79.800606609,1585.0
79.817317878,1486.0
79.834029147,1542.0
79.850740416,1523.0
79.867451685,1582.0
79.884162954,1574.0
79.900874223,1560.0
79.917585492,1527.0
79.934296761,1589.0
79.951008030,1535.0
79.967719299,1576.0
79.984430568,1509.0
80.001141837,1531.0
80.017853106,1552.0
80.034564375,1546.0
80.051275644,1544.0
80.067986913,1603.0
80.084698182,1613.0
80.101409451,1521.0
80.118120720,1506.0
80.134831989,1573.0
80.151543258,1550.0
80.168254526,1541.0
80.184965795,1472.0
80.201677064,1523.0
80.218388333,1592.0
80.235099602,1497.0
80.251810871,1507.0
80.268522140,1555.0
80.285233409,1472.0
80.301944678,1470.0
80.318655947,1496.0
80.335367216,1514.0
80.352078485,1551.0
80.368789754,1583.0
80.385501023,1570.0
80.402212292,1569.0
80.418923561,1523.0
80.435634830,1403.0
80.452346099,1489.0
80.469057368,1539.0
80.485768637,1550.0
80.502479906,1502.0
80.519191175,1495.0
80.535902444,1565.0
80.552613713,1553.0
80.569324982,1486.0
80.586036251,1456.0
80.602747520,1567.0
80.619458789,1463.0
80.636170058,1485.0
80.652881327,1509.0
80.669592596,1446.0
80.686303865,1602.0
80.703015134,1619.0
80.719726403,1611.0
80.736437672,1522.0
80.753148941,1563.0
80.769860210,1525.0
80.786571479,1541.0
80.803282748,1510.0
80.819994017,1476.0
80.836705286,1516.0
80.853416555,1537.0
80.870127824,1530.0
80.886839093,1508.0
80.903550362,1574.0
80.920261630,1498.0
80.936972899,1527.0
80.953684168,1519.0
80.970395437,1528.0
80.987106706,1519.0
81.003817975,1484.0
81.020529244,1572.0
81.037240513,1466.0
81.053951782,1525.0
81.070663051,1609.0
81.087374320,1525.0
81.104085589,1517.0
81.120796858,1549.0
81.137508127,1512.0
81.154219396,1543.0
81.170930665,1452.0
81.187641934,1535.0
81.204353203,1470.0
81.221064472,1510.0
81.237775741,1532.0
81.254487010,1559.0
81.271198279,1522.0
81.287909548,1488.0
81.304620817,1553.0
81.321332086,1547.0
81.338043355,1457.0
81.354754624,1452.0
81.371465893,1517.0
81.388177162,1535.0
81.404888431,1472.0
81.421599700,1562.0
81.438310969,1492.0
81.455022238,1499.0
81.471733507,1561.0
81.488444776,1544.0
81.505156045,1488.0
81.521867314,1564.0
81.538578583,1503.0
81.555289852,1511.0
81.572001121,1528.0
81.588712390,1515.0
81.605423659,1458.0
81.622134928,1549.0
81.638846197,1431.0
81.655557466,1431.0
81.672268735,1481.0
81.688980003,1406.0
81.705691272,1501.0
81.722402541,1486.0
81.739113810,1462.0
81.755825079,1475.0
81.772536348,1507.0
81.789247617,1522.0
81.805958886,1555.0
81.822670155,1534.0
81.839381424,1441.0
81.856092693,1462.0
81.872803962,1532.0
81.889515231,1483.0
81.906226500,1394.0
81.922937769,1507.0
81.939649038,1453.0
81.956360307,1482.0
81.973071576,1559.0
81.989782845,1510.0
82.006494114,1466.0
82.023205383,1432.0
82.039916652,1446.0
82.056627921,1467.0
82.073339190,1443.0
82.090050459,1464.0
82.106761728,1442.0
82.123472997,1562.0
82.140184266,1488.0
82.156895535,1482.0
82.173606804,1500.0
82.190318073,1440.0
82.207029342,1482.0
82.223740611,1475.0
82.240451880,1506.0
82.257163149,1459.0
82.273874418,1454.0
82.290585687,1419.0
82.307296956,1488.0
82.324008225,1469.0
82.340719494,1435.0
82.357430763,1558.0
82.374142032,1460.0
82.390853301,1509.0
82.407564570,1432.0
82.424275839,1486.0
82.440987107,1478.0
82.457698376,1493.0
82.474409645,1489.0
82.491120914,1461.0
82.507832183,1538.0
82.524543452,1480.0
82.541254721,1464.0
82.557965990,1458.0
82.574677259,1532.0
82.591388528,1426.0
82.608099797,1457.0
82.624811066,1442.0
82.641522335,1495.0
82.658233604,1461.0
82.674944873,1536.0
82.691656142,1500.0
82.708367411,1452.0
82.725078680,1408.0
82.741789949,1472.0
82.758501218,1454.0
82.775212487,1425.0
82.791923756,1418.0
82.808635025,1494.0
82.825346294,1569.0
82.842057563,1488.0
82.858768832,1513.0
82.875480101,1326.0
82.892191370,1440.0
82.908902639,1473.0
82.925613908,1482.0
82.942325177,1426.0
82.959036446,1544.0
82.975747715,1514.0
82.992458984,1411.0
83.009170253,1443.0
83.025881522,1435.0
83.042592791,1442.0
83.059304060,1406.0
83.076015329,1378.0
83.092726598,1477.0
83.109437867,1416.0
83.126149136,1376.0
83.142860405,1534.0
83.159571674,1491.0
83.176282943,1468.0
83.192994212,1415.0
83.209705480,1464.0
83.226416749,1454.0
83.243128018,1472.0
83.259839287,1442.0
83.276550556,1409.0
83.293261825,1423.0
83.309973094,1459.0
83.326684363,1367.0
83.343395632,1496.0
83.360106901,1419.0
83.376818170,1449.0
83.393529439,1474.0
83.410240708,1437.0
83.426951977,1519.0
83.443663246,1439.0
83.460374515,1465.0
83.477085784,1432.0
83.493797053,1526.0
83.510508322,1470.0
83.527219591,1489.0
83.543930860,1460.0
83.560642129,1446.0
83.577353398,1412.0
83.594064667,1444.0
83.610775936,1409.0
83.627487205,1448.0
83.644198474,1459.0
83.660909743,1469.0
83.677621012,1441.0
83.694332281,1488.0
83.711043550,1492.0
83.727754819,1468.0
83.744466088,1458.0
83.761177357,1443.0
83.777888626,1416.0
83.794599895,1455.0
83.811311164,1441.0
83.828022433,1483.0
83.844733702,1444.0
83.861444971,1469.0
83.878156240,1452.0
83.894867509,1512.0
83.911578778,1499.0
83.928290047,1428.0
83.945001316,1395.0
83.961712584,1419.0
83.978423853,1474.0
83.995135122,1436.0
84.011846391,1381.0
84.028557660,1409.0
84.045268929,1452.0
84.061980198,1452.0
84.078691467,1456.0
84.095402736,1415.0
84.112114005,1368.0
84.128825274,1442.0
84.145536543,1403.0
84.162247812,1437.0
84.178959081,1465.0
84.195670350,1479.0
84.212381619,1485.0
84.229092888,1452.0
84.245804157,1399.0
84.262515426,1423.0
84.279226695,1443.0
84.295937964,1453.0
84.312649233,1432.0
84.329360502,1397.0
84.346071771,1456.0
84.362783040,1431.0
84.379494309,1458.0
84.396205578,1440.0
84.412916847,1424.0
84.429628116,1434.0
84.446339385,1386.0
84.463050654,1444.0
84.479761923,1407.0
84.496473192,1386.0
84.513184461,1470.0
84.529895730,1442.0
84.546606999,1462.0
84.563318268,1427.0
84.580029537,1389.0
84.596740806,1448.0
84.613452075,1399.0
84.630163344,1473.0
84.646874613,1499.0
84.663585882,1451.0
84.680297151,1420.0
84.697008420,1518.0
84.713719689,1449.0
84.730430957,1389.0
84.747142226,1354.0
84.763853495,1445.0
84.780564764,1425.0
84.797276033,1429.0
84.813987302,1425.0
84.830698571,1405.0
84.847409840,1352.0
84.864121109,1463.0
84.880832378,1338.0
84.897543647,1409.0
84.914254916,1451.0
84.930966185,1399.0
84.947677454,1377.0
84.964388723,1423.0
84.981099992,1388.0
84.997811261,1434.0
85.014522530,1397.0
85.031233799,1367.0
85.047945068,1368.0
85.064656337,1418.0
85.081367606,1429.0
85.098078875,1415.0
85.114790144,1457.0
85.131501413,1422.0
85.148212682,1402.0
85.164923951,1429.0
85.181635220,1369.0
85.198346489,1430.0
85.215057758,1538.0
85.231769027,1431.0
85.248480296,1516.0
85.265191565,1353.0
85.281902834,1459.0
85.298614103,1356.0
85.315325372,1476.0
85.332036641,1461.0
85.348747910,1385.0
85.365459179,1408.0
85.382170448,1390.0
85.398881717,1415.0
85.415592986,1427.0
85.432304255,1335.0
85.449015524,1464.0
85.465726793,1402.0
85.482438061,1388.0
85.499149330,1434.0
85.515860599,1443.0
85.532571868,1379.0
85.549283137,1432.0
85.565994406,1404.0
85.582705675,1404.0
85.599416944,1423.0
85.616128213,1428.0
85.632839482,1354.0
85.649550751,1419.0
85.666262020,1397.0
85.682973289,1416.0
85.699684558,1392.0
85.716395827,1370.0
85.733107096,1349.0
85.749818365,1416.0
85.766529634,1346.0
85.783240903,1412.0
85.799952172,1396.0
85.816663441,1452.0
85.833374710,1381.0
85.850085979,1348.0
85.866797248,1360.0
85.883508517,1412.0
85.900219786,1407.0
85.916931055,1430.0
85.933642324,1388.0
85.950353593,1344.0
85.967064862,1437.0
85.983776131,1360.0
86.000487400,1370.0
86.017198669,1414.0
86.033909938,1371.0
86.050621207,1401.0
86.067332476,1440.0
86.084043745,1446.0
86.100755014,1433.0
86.117466283,1352.0
86.134177552,1355.0
86.150888821,1374.0
86.167600090,1392.0
86.184311359,1421.0
86.201022628,1333.0
86.217733897,1428.0
86.234445166,1344.0
86.251156434,1451.0
86.267867703,1309.0
86.284578972,1430.0
86.301290241,1445.0
86.318001510,1389.0
86.334712779,1393.0
86.351424048,1411.0
86.368135317,1535.0
86.384846586,1428.0
86.401557855,1313.0
86.418269124,1435.0
86.434980393,1430.0
86.451691662,1458.0
86.468402931,1357.0
86.485114200,1388.0
86.501825469,1403.0
86.518536738,1329.0
86.535248007,1324.0
86.551959276,1370.0
86.568670545,1418.0
86.585381814,1380.0
86.602093083,1389.0
86.618804352,1407.0
86.635515621,1345.0
86.652226890,1309.0
86.668938159,1404.0
86.685649428,1322.0
86.702360697,1433.0
86.719071966,1382.0
86.735783235,1366.0
86.752494504,1435.0
86.769205773,1356.0
86.785917042,1417.0
86.802628311,1379.0
86.819339580,1442.0
86.836050849,1300.0
86.852762118,1368.0
86.869473387,1409.0
86.886184656,1424.0
86.902895925,1445.0
86.919607194,1409.0
86.936318463,1311.0
86.953029732,1387.0
86.969741001,1371.0
86.986452270,1434.0
87.003163539,1309.0
87.019874807,1360.0
87.036586076,1370.0
87.053297345,1424.0
87.070008614,1408.0
87.086719883,1446.0
87.103431152,1439.0
87.120142421,1297.0
87.136853690,1307.0
87.153564959,1392.0
87.170276228,1367.0
87.186987497,1434.0
87.203698766,1370.0
87.220410035,1467.0
87.237121304,1342.0
87.253832573,1456.0
87.270543842,1372.0
87.287255111,1380.0
87.303966380,1345.0
87.320677649,1428.0
87.337388918,1364.0
87.354100187,1372.0
87.370811456,1357.0
87.387522725,1420.0
87.404233994,1366.0
87.420945263,1409.0
87.437656532,1328.0
87.454367801,1436.0
87.471079070,1325.0
87.487790339,1316.0
87.504501608,1416.0
87.521212877,1328.0
87.537924146,1393.0
87.554635415,1445.0
87.571346684,1466.0
87.588057953,1400.0
87.604769222,1413.0
87.621480491,1365.0
87.638191760,1410.0
87.654903029,1361.0
87.671614298,1395.0
87.688325567,1429.0
87.705036836,1394.0
87.721748105,1387.0
87.738459374,1443.0
87.755170643,1406.0
87.771881911,1343.0
87.788593180,1368.0
87.805304449,1380.0
87.822015718,1300.0
87.838726987,1421.0
87.855438256,1372.0
87.872149525,1337.0
87.888860794,1398.0
87.905572063,1383.0
87.922283332,1418.0
87.938994601,1432.0
87.955705870,1385.0
87.972417139,1345.0
87.989128408,1326.0
88.005839677,1352.0
88.022550946,1399.0
88.039262215,1354.0
88.055973484,1393.0
88.072684753,1365.0
88.089396022,1330.0
88.106107291,1392.0
88.122818560,1429.0
88.139529829,1373.0
88.156241098,1417.0
88.172952367,1398.0
88.189663636,1316.0
88.206374905,1419.0
88.223086174,1439.0
88.239797443,1299.0
88.256508712,1396.0
88.273219981,1370.0
88.289931250,1321.0
88.306642519,1407.0
88.323353788,1386.0
88.340065057,1441.0
88.356776326,1323.0
88.373487595,1391.0
88.390198864,1384.0
88.406910133,1333.0
88.423621402,1389.0
88.440332671,1360.0
88.457043940,1414.0
88.473755209,1380.0
88.490466478,1372.0
88.507177747,1424.0
88.523889016,1408.0
88.540600284,1357.0
88.557311553,1353.0
88.574022822,1386.0
88.590734091,1328.0
88.607445360,1359.0
88.624156629,1353.0
88.640867898,1384.0
88.657579167,1401.0
88.674290436,1420.0
88.691001705,1354.0
88.707712974,1320.0
88.724424243,1362.0
88.741135512,1324.0
88.757846781,1387.0
88.774558050,1457.0
88.791269319,1345.0
88.807980588,1402.0
88.824691857,1323.0
88.841403126,1379.0
88.858114395,1408.0
88.874825664,1402.0
88.891536933,1411.0
88.908248202,1420.0
88.924959471,1333.0
88.941670740,1377.0
88.958382009,1406.0
88.975093278,1356.0
88.991804547,1321.0
89.008515816,1358.0
89.025227085,1386.0
89.041938354,1381.0
89.058649623,1394.0
89.075360892,1368.0
89.092072161,1393.0
89.108783430,1395.0
89.125494699,1350.0
89.142205968,1417.0
89.158917237,1360.0
89.175628506,1342.0
89.192339775,1374.0
89.209051044,1346.0
89.225762313,1412.0
89.242473582,1381.0
89.259184851,1388.0
89.275896120,1363.0
89.292607388,1399.0
89.309318657,1381.0
89.326029926,1361.0
89.342741195,1395.0
89.359452464,1371.0
89.376163733,1381.0
89.392875002,1299.0
89.409586271,1388.0
89.426297540,1340.0
89.443008809,1380.0
89.459720078,1354.0
89.476431347,1359.0
89.493142616,1344.0
89.509853885,1355.0
89.526565154,1406.0
89.543276423,1357.0
89.559987692,1332.0
89.576698961,1334.0
89.593410230,1286.0
89.610121499,1269.0
89.626832768,1372.0
89.643544037,1335.0
89.660255306,1360.0
89.676966575,1401.0
89.693677844,1367.0
89.710389113,1330.0
89.727100382,1324.0
89.743811651,1378.0
89.760522920,1400.0
89.777234189,1367.0
89.793945458,1404.0
89.810656727,1315.0
89.827367996,1368.0
89.844079265,1345.0
89.860790534,1429.0
89.877501803,1392.0
89.894213072,1330.0
89.910924341,1335.0
89.927635610,1370.0
89.944346879,1317.0
89.961058148,1314.0
89.977769417,1368.0
89.994480686,1361.0
90.011191955,1382.0
90.027903224,1419.0
90.044614493,1332.0
90.061325761,1367.0
90.078037030,1241.0
90.094748299,1303.0
90.111459568,1360.0
90.128170837,1307.0
90.144882106,1386.0
90.161593375,1342.0
90.178304644,1398.0
90.195015913,1384.0
90.211727182,1376.0
90.228438451,1355.0
90.245149720,1333.0
90.261860989,1360.0
90.278572258,1403.0
90.295283527,1322.0
90.311994796,1364.0
90.328706065,1316.0
90.345417334,1362.0
90.362128603,1380.0
90.378839872,1376.0
90.395551141,1365.0
90.412262410,1366.0
90.428973679,1389.0
90.445684948,1336.0
90.462396217,1390.0
90.479107486,1376.0
90.495818755,1375.0
90.512530024,1325.0
90.529241293,1406.0
90.545952562,1385.0
90.562663831,1363.0
90.579375100,1388.0
90.596086369,1361.0
90.612797638,1373.0
90.629508907,1344.0
90.646220176,1426.0
90.662931445,1341.0
90.679642714,1360.0
90.696353983,1361.0
90.713065252,1363.0
90.729776521,1365.0
90.746487790,1340.0
90.763199059,1422.0
90.779910328,1337.0
90.796621597,1357.0
90.813332865,1343.0
90.830044134,1308.0
90.846755403,1335.0
90.863466672,1409.0
90.880177941,1311.0
90.896889210,1367.0
90.913600479,1340.0
90.930311748,1359.0
90.947023017,1340.0
90.963734286,1416.0
90.980445555,1368.0
90.997156824,1377.0
91.013868093,1384.0
91.030579362,1396.0
91.047290631,1307.0
91.064001900,1448.0
91.080713169,1408.0
91.097424438,1361.0
91.114135707,1379.0
91.130846976,1362.0
91.147558245,1317.0
91.164269514,1352.0
91.180980783,1446.0
91.197692052,1394.0
91.214403321,1402.0
91.231114590,1394.0
91.247825859,1477.0
91.264537128,1352.0
91.281248397,1445.0
91.297959666,1356.0
91.314670935,1405.0
91.331382204,1302.0
91.348093473,1379.0
91.364804742,1415.0
91.381516011,1394.0
91.398227280,1428.0
91.414938549,1450.0
91.431649818,1412.0
91.448361087,1393.0
91.465072356,1452.0
91.481783625,1452.0
91.498494894,1463.0
91.515206163,1463.0
91.531917432,1394.0
91.548628701,1368.0
91.565339970,1422.0
91.582051238,1429.0
91.598762507,1481.0
91.615473776,1450.0
91.632185045,1476.0
91.648896314,1435.0
91.665607583,1417.0
91.682318852,1435.0
91.699030121,1529.0
91.715741390,1481.0
91.732452659,1487.0
91.749163928,1488.0
91.765875197,1512.0
91.782586466,1491.0
91.799297735,1511.0
91.816009004,1580.0
91.832720273,1492.0
91.849431542,1557.0
91.866142811,1520.0
91.882854080,1577.0
91.899565349,1556.0
91.916276618,1582.0
91.932987887,1549.0
91.949699156,1597.0
91.966410425,1585.0
91.983121694,1707.0
91.999832963,1606.0
92.016544232,1653.0
92.033255501,1589.0
92.049966770,1683.0
92.066678039,1715.0
92.083389308,1645.0
92.100100577,1705.0
92.116811846,1794.0
92.133523115,1736.0
92.150234384,1759.0
92.166945653,1785.0
92.183656922,1771.0
92.200368191,1834.0
92.217079460,1910.0
92.233790729,1865.0
92.250501998,1937.0
92.267213267,1823.0
92.283924536,1887.0
92.300635805,1754.0
92.317347074,1813.0
92.334058342,1718.0
92.350769611,1869.0
92.367480880,1761.0
92.384192149,1867.0
92.400903418,1790.0
92.417614687,1681.0
92.434325956,1689.0
92.451037225,1649.0
92.467748494,1599.0
92.484459763,1725.0
92.501171032,1668.0
92.517882301,1713.0
92.534593570,1722.0
92.551304839,1647.0
92.568016108,1639.0
92.584727377,1589.0
92.601438646,1595.0
92.618149915,1576.0
92.634861184,1617.0
92.651572453,1513.0
92.668283722,1558.0
92.684994991,1516.0
92.701706260,1522.0
92.718417529,1502.0
92.735128798,1515.0
92.751840067,1491.0
92.768551336,1431.0
92.785262605,1433.0
92.801973874,1444.0
92.818685143,1402.0
92.835396412,1440.0
92.852107681,1404.0
92.868818950,1402.0
92.885530219,1429.0
92.902241488,1448.0
92.918952757,1444.0
92.935664026,1369.0
92.952375295,1434.0
92.969086564,1406.0
92.985797833,1368.0
93.002509102,1411.0
93.019220371,1440.0
93.035931640,1393.0
93.052642909,1325.0
93.069354178,1389.0
93.086065447,1316.0
93.102776715,1318.0
93.119487984,1352.0
93.136199253,1380.0
93.152910522,1338.0
93.169621791,1406.0
93.186333060,1279.0
93.203044329,1387.0
93.219755598,1324.0
93.236466867,1397.0
93.253178136,1361.0
93.269889405,1392.0
93.286600674,1319.0
93.303311943,1379.0
93.320023212,1344.0
93.336734481,1314.0
93.353445750,1381.0
93.370157019,1344.0
93.386868288,1350.0
93.403579557,1385.0
93.420290826,1363.0
93.437002095,1401.0
93.453713364,1330.0
93.470424633,1256.0
93.487135902,1203.0
93.503847171,1347.0
93.520558440,1332.0
93.537269709,1375.0
93.553980978,1288.0
93.570692247,1317.0
93.587403516,1270.0
93.604114785,1345.0
93.620826054,1263.0
93.637537323,1371.0
93.654248592,1304.0
93.670959861,1362.0
93.687671130,1292.0
93.704382399,1351.0
93.721093668,1330.0
93.737804937,1352.0
93.754516206,1288.0
93.771227475,1348.0
93.787938744,1309.0
93.804650013,1380.0
93.821361282,1339.0
93.838072551,1311.0
93.854783819,1374.0
93.871495088,1301.0
93.888206357,1344.0
93.904917626,1404.0
93.921628895,1332.0
93.938340164,1327.0
93.955051433,1296.0
93.971762702,1244.0
93.988473971,1310.0
94.005185240,1292.0
94.021896509,1210.0
94.038607778,1315.0
94.055319047,1334.0
94.072030316,1254.0
94.088741585,1328.0
94.105452854,1280.0
94.122164123,1351.0
94.138875392,1366.0
94.155586661,1322.0
94.172297930,1345.0
94.189009199,1275.0
94.205720468,1325.0
94.222431737,1269.0
94.239143006,1247.0
94.255854275,1293.0
94.272565544,1282.0
94.289276813,1329.0
94.305988082,1319.0
94.322699351,1351.0
94.339410620,1339.0
94.356121889,1324.0
94.372833158,1310.0
94.389544427,1287.0
94.406255696,1284.0
94.422966965,1342.0
94.439678234,1345.0
94.456389503,1345.0
94.473100772,1311.0
94.489812041,1294.0
94.506523310,1391.0
94.523234579,1317.0
94.539945848,1313.0
94.556657117,1256.0
94.573368386,1299.0
94.590079655,1324.0
94.606790924,1306.0
94.623502192,1261.0
94.640213461,1305.0
94.656924730,1365.0
94.673635999,1295.0
94.690347268,1297.0
94.707058537,1308.0
94.723769806,1352.0
94.740481075,1283.0
94.757192344,1274.0
94.773903613,1331.0
94.790614882,1382.0
94.807326151,1331.0
94.824037420,1322.0
94.840748689,1277.0
94.857459958,1285.0
94.874171227,1288.0
94.890882496,1274.0
94.907593765,1342.0
94.924305034,1227.0
94.941016303,1324.0
94.957727572,1307.0
94.974438841,1337.0
94.991150110,1291.0
