[Measurement conditions]
Sample identification,
Comment - 1,"finito"
Comment - 2,"Configuration=MRI TC-Basic Stage, Owner=User-1, Creation date=26-10-2009 9:18:44"
Comment - 3,"Goniometer=PW3050/60 (Theta/Theta); Minimum step size 2Theta:0.001; Minimum step size Omega:0.001"
Comment - 4,"Sample stage=MRI TC-Basic (PtRh heat strip)"
Comment - 5,"Diffractometer system=XPERT-PRO"
Comment - 6,"Measurement program=FS-L, Owner=joana, Creation date=25-11-2014 17:28:08"
Anode material,Cu
K-Alpha1 wavelength,1.5405980
K-Alpha2 wavelength,1.5444260
Ratio K-Alpha2/K-Alpha1,0.500
Divergence slit,Fixed,0.76mm
Monochromator used,NO
Generator voltage, 45
Tube current, 40
File date and time,16-Dez-2017 07:19
Unit cell,
h k l, 0 0 0
Temperature [K],303
Scan axis,Gonio
Scan range,24.995999996,94.999505744
Scan step size,0.0167113
No. of points, 4189
Scan type,CONTINUOUS
Time per step,118.110
[Scan points]
Angle,Intensity
25.004355630,2440.0
25.021066899,2282.0
25.037778168,2369.0
25.054489437,2356.0
25.071200706,2358.0
25.087911975,2298.0
25.104623244,2255.0
25.121334513,2385.0
25.138045782,2250.0
25.154757051,2316.0
25.171468320,2318.0
25.188179589,2442.0
25.204890858,2295.0
25.221602127,2348.0
25.238313396,2278.0
25.255024665,2310.0
25.271735934,2421.0
25.288447203,2380.0
25.305158472,2323.0
25.321869741,2395.0
25.338581010,2414.0
25.355292279,2282.0
25.372003548,2322.0
25.388714816,2285.0
25.405426085,2328.0
25.422137354,2258.0
25.438848623,2223.0
25.455559892,2337.0
25.472271161,2342.0
25.488982430,2296.0
25.505693699,2331.0
25.522404968,2286.0
25.539116237,2305.0
25.555827506,2285.0
25.572538775,2308.0
25.589250044,2282.0
25.605961313,2318.0
25.622672582,2337.0
25.639383851,2306.0
25.656095120,2226.0
25.672806389,2275.0
25.689517658,2293.0
25.706228927,2304.0
25.722940196,2281.0
25.739651465,2253.0
25.756362734,2205.0
25.773074003,2407.0
25.789785272,2324.0
25.806496541,2312.0
25.823207810,2326.0
25.839919079,2239.0
25.856630348,2271.0
25.873341617,2375.0
25.890052886,2369.0
25.906764155,2271.0
25.923475424,2296.0
25.940186693,2253.0
25.956897962,2332.0
25.973609231,2234.0
25.990320500,2232.0
26.007031769,2128.0
26.023743038,2316.0
26.040454307,2275.0
26.057165576,2300.0
26.073876845,2362.0
26.090588114,2318.0
26.107299383,2289.0
26.124010652,2317.0
26.140721921,2280.0
26.157433189,2309.0
26.174144458,2222.0
26.190855727,2337.0
26.207566996,2310.0
26.224278265,2258.0
26.240989534,2220.0
26.257700803,2311.0
26.274412072,2249.0
26.291123341,2233.0
26.307834610,2331.0
26.324545879,2267.0
26.341257148,2314.0
26.357968417,2284.0
26.374679686,2217.0
26.391390955,2311.0
26.408102224,2286.0
26.424813493,2272.0
26.441524762,2352.0
26.458236031,2202.0
26.474947300,2278.0
26.491658569,2325.0
26.508369838,2274.0
26.525081107,2275.0
26.541792376,2216.0
26.558503645,2341.0
26.575214914,2242.0
26.591926183,2336.0
26.608637452,2335.0
26.625348721,2243.0
26.642059990,2361.0
26.658771259,2270.0
26.675482528,2240.0
26.692193797,2379.0
26.708905066,2311.0
26.725616335,2287.0
26.742327604,2256.0
26.759038873,2176.0
26.775750142,2303.0
26.792461411,2263.0
26.809172680,2311.0
26.825883949,2319.0
26.842595218,2231.0
26.859306487,2288.0
26.876017756,2203.0
26.892729025,2303.0
26.909440293,2292.0
26.926151562,2248.0
26.942862831,2322.0
26.959574100,2261.0
26.976285369,2187.0
26.992996638,2279.0
27.009707907,2281.0
27.026419176,2247.0
27.043130445,2278.0
27.059841714,2211.0
27.076552983,2319.0
27.093264252,2303.0
27.109975521,2305.0
27.126686790,2238.0
27.143398059,2320.0
27.160109328,2285.0
27.176820597,2300.0
27.193531866,2267.0
27.210243135,2249.0
27.226954404,2232.0
27.243665673,2279.0
27.260376942,2320.0
27.277088211,2202.0
27.293799480,2348.0
27.310510749,2244.0
27.327222018,2258.0
27.343933287,2214.0
27.360644556,2274.0
27.377355825,2138.0
27.394067094,2229.0
27.410778363,2244.0
27.427489632,2235.0
27.444200901,2165.0
27.460912170,2233.0
27.477623439,2235.0
27.494334708,2316.0
27.511045977,2255.0
27.527757246,2183.0
27.544468515,2294.0
27.561179784,2173.0
27.577891053,2173.0
27.594602322,2258.0
27.611313591,2300.0
27.628024860,2247.0
27.644736129,2298.0
27.661447398,2317.0
27.678158666,2259.0
27.694869935,2244.0
27.711581204,2268.0
27.728292473,2240.0
27.745003742,2186.0
27.761715011,2174.0
27.778426280,2388.0
27.795137549,2267.0
27.811848818,2222.0
27.828560087,2272.0
27.845271356,2207.0
27.861982625,2304.0
27.878693894,2265.0
27.895405163,2186.0
27.912116432,2272.0
27.928827701,2207.0
27.945538970,2234.0
27.962250239,2299.0
27.978961508,2221.0
27.995672777,2325.0
28.012384046,2185.0
28.029095315,2221.0
28.045806584,2255.0
28.062517853,2174.0
28.079229122,2309.0
28.095940391,2283.0
28.112651660,2219.0
28.129362929,2147.0
28.146074198,2249.0
28.162785467,2343.0
28.179496736,2285.0
28.196208005,2262.0
28.212919274,2253.0
28.229630543,2242.0
28.246341812,2314.0
28.263053081,2367.0
28.279764350,2518.0
28.296475619,3398.0
28.313186888,2950.0
28.329898157,2492.0
28.346609426,2395.0
28.363320695,2536.0
28.380031964,2775.0
28.396743233,2468.0
28.413454502,2288.0
28.430165770,2349.0
28.446877039,2293.0
28.463588308,2304.0
28.480299577,2318.0
28.497010846,2296.0
28.513722115,2347.0
28.530433384,2302.0
28.547144653,2383.0
28.563855922,2232.0
28.580567191,2373.0
28.597278460,2328.0
28.613989729,2338.0
28.630700998,2406.0
28.647412267,2382.0
28.664123536,2363.0
28.680834805,2483.0
28.697546074,2440.0
28.714257343,2397.0
28.730968612,2419.0
28.747679881,2357.0
28.764391150,2403.0
28.781102419,2463.0
28.797813688,2449.0
28.814524957,2405.0
28.831236226,2378.0
28.847947495,2460.0
28.864658764,2422.0
28.881370033,2374.0
28.898081302,2455.0
28.914792571,2250.0
28.931503840,2372.0
28.948215109,2321.0
28.964926378,2431.0
28.981637647,2263.0
28.998348916,2340.0
29.015060185,2336.0
29.031771454,2269.0
29.048482723,2328.0
29.065193992,2289.0
29.081905261,2259.0
29.098616530,2317.0
29.115327799,2261.0
29.132039068,2253.0
29.148750337,2393.0
29.165461606,2328.0
29.182172875,2189.0
29.198884143,2322.0
29.215595412,2287.0
29.232306681,2295.0
29.249017950,2305.0
29.265729219,2281.0
29.282440488,2341.0
29.299151757,2253.0
29.315863026,2244.0
29.332574295,2179.0
29.349285564,2280.0
29.365996833,2285.0
29.382708102,2274.0
29.399419371,2258.0
29.416130640,2234.0
29.432841909,2204.0
29.449553178,2209.0
29.466264447,2227.0
29.482975716,2270.0
29.499686985,2213.0
29.516398254,2148.0
29.533109523,2160.0
29.549820792,2265.0
29.566532061,2194.0
29.583243330,2247.0
29.599954599,2224.0
29.616665868,2142.0
29.633377137,2227.0
29.650088406,2191.0
29.666799675,2228.0
29.683510944,2197.0
29.700222213,2287.0
29.716933482,2226.0
29.733644751,2203.0
29.750356020,2163.0
29.767067289,2255.0
29.783778558,2226.0
29.800489827,2246.0
29.817201096,2179.0
29.833912365,2188.0
29.850623634,2224.0
29.867334903,2256.0
29.884046172,2299.0
29.900757441,2303.0
29.917468710,2351.0
29.934179979,2279.0
29.950891247,2254.0
29.967602516,2318.0
29.984313785,2271.0
30.001025054,2227.0
30.017736323,2308.0
30.034447592,2291.0
30.051158861,2207.0
30.067870130,2150.0
30.084581399,2312.0
30.101292668,2265.0
30.118003937,2294.0
30.134715206,2253.0
30.151426475,2217.0
30.168137744,2240.0
30.184849013,2167.0
30.201560282,2246.0
30.218271551,2290.0
30.234982820,2255.0
30.251694089,2223.0
30.268405358,2325.0
30.285116627,2296.0
30.301827896,2192.0
30.318539165,2326.0
30.335250434,2347.0
30.351961703,2318.0
30.368672972,2260.0
30.385384241,2321.0
30.402095510,2254.0
30.418806779,2177.0
30.435518048,2266.0
30.452229317,2238.0
30.468940586,2236.0
30.485651855,2235.0
30.502363124,2147.0
30.519074393,2244.0
30.535785662,2116.0
30.552496931,2235.0
30.569208200,2271.0
30.585919469,2222.0
30.602630738,2251.0
30.619342007,2208.0
30.636053276,2298.0
30.652764545,2235.0
30.669475814,2199.0
30.686187083,2162.0
30.702898352,2211.0
30.719609620,2101.0
30.736320889,2222.0
30.753032158,2258.0
30.769743427,2320.0
30.786454696,2229.0
30.803165965,2186.0
30.819877234,2072.0
30.836588503,2180.0
30.853299772,2163.0
30.870011041,2152.0
30.886722310,2198.0
30.903433579,2082.0
30.920144848,2157.0
30.936856117,2211.0
30.953567386,2123.0
30.970278655,2163.0
30.986989924,2205.0
31.003701193,2204.0
31.020412462,2092.0
31.037123731,2149.0
31.053835000,2146.0
31.070546269,2154.0
31.087257538,2162.0
31.103968807,2238.0
31.120680076,2179.0
31.137391345,2220.0
31.154102614,2148.0
31.170813883,2170.0
31.187525152,2140.0
31.204236421,2225.0
31.220947690,2203.0
31.237658959,2123.0
31.254370228,2180.0
31.271081497,2180.0
31.287792766,2269.0
31.304504035,2082.0
31.321215304,2237.0
31.337926573,2159.0
31.354637842,2126.0
31.371349111,2206.0
31.388060380,2138.0
31.404771649,2110.0
31.421482918,2194.0
31.438194187,2145.0
31.454905456,2248.0
31.471616724,2176.0
31.488327993,2250.0
31.505039262,2235.0
31.521750531,2130.0
31.538461800,2105.0
31.555173069,2122.0
31.571884338,2228.0
31.588595607,2184.0
31.605306876,2144.0
31.622018145,2103.0
31.638729414,2200.0
31.655440683,2148.0
31.672151952,2129.0
31.688863221,2153.0
31.705574490,2125.0
31.722285759,2161.0
31.738997028,2155.0
31.755708297,2253.0
31.772419566,2099.0
31.789130835,2165.0
31.805842104,2147.0
31.822553373,2141.0
31.839264642,2199.0
31.855975911,2186.0
31.872687180,2237.0
31.889398449,2250.0
31.906109718,2273.0
31.922820987,2183.0
31.939532256,2156.0
31.956243525,2168.0
31.972954794,2114.0
31.989666063,2144.0
32.006377332,2124.0
32.023088601,2186.0
32.039799870,2107.0
32.056511139,2183.0
32.073222408,2133.0
32.089933677,2145.0
32.106644946,2175.0
32.123356215,2102.0
32.140067484,2152.0
32.156778753,2029.0
32.173490022,2146.0
32.190201291,2182.0
32.206912560,2117.0
32.223623829,2125.0
32.240335097,2136.0
32.257046366,2198.0
32.273757635,2100.0
32.290468904,2130.0
32.307180173,2125.0
32.323891442,2145.0
32.340602711,2082.0
32.357313980,2162.0
32.374025249,2172.0
32.390736518,2064.0
32.407447787,2128.0
32.424159056,2178.0
32.440870325,2091.0
32.457581594,2149.0
32.474292863,2118.0
32.491004132,2125.0
32.507715401,2113.0
32.524426670,2118.0
32.541137939,2068.0
32.557849208,2167.0
32.574560477,2131.0
32.591271746,2258.0
32.607983015,2056.0
32.624694284,2194.0
32.641405553,2216.0
32.658116822,2215.0
32.674828091,2191.0
32.691539360,2233.0
32.708250629,2143.0
32.724961898,2188.0
32.741673167,2222.0
32.758384436,2151.0
32.775095705,2146.0
32.791806974,2174.0
32.808518243,2119.0
32.825229512,2189.0
32.841940781,2134.0
32.858652050,2166.0
32.875363319,2136.0
32.892074588,2133.0
32.908785857,2185.0
32.925497126,2185.0
32.942208395,2168.0
32.958919664,2122.0
32.975630933,2201.0
32.992342201,2145.0
33.009053470,2136.0
33.025764739,2145.0
33.042476008,2092.0
33.059187277,2130.0
33.075898546,2191.0
33.092609815,2208.0
33.109321084,2241.0
33.126032353,2190.0
33.142743622,2167.0
33.159454891,2098.0
33.176166160,2126.0
33.192877429,2148.0
33.209588698,2129.0
33.226299967,2139.0
33.243011236,2126.0
33.259722505,2122.0
33.276433774,2098.0
33.293145043,2159.0
33.309856312,2194.0
33.326567581,2113.0
33.343278850,2103.0
33.359990119,2145.0
33.376701388,2129.0
33.393412657,2182.0
33.410123926,2039.0
33.426835195,2094.0
33.443546464,2177.0
33.460257733,2101.0
33.476969002,2190.0
33.493680271,2172.0
33.510391540,2185.0
33.527102809,2069.0
33.543814078,2121.0
33.560525347,2092.0
33.577236616,2165.0
33.593947885,2136.0
33.610659154,2105.0
33.627370423,2081.0
33.644081692,2186.0
33.660792961,2126.0
33.677504230,2060.0
33.694215499,2174.0
33.710926768,2191.0
33.727638037,2137.0
33.744349306,2092.0
33.761060574,2222.0
33.777771843,2114.0
33.794483112,2019.0
33.811194381,2116.0
33.827905650,2136.0
33.844616919,2167.0
33.861328188,2112.0
33.878039457,2120.0
33.894750726,2153.0
33.911461995,2092.0
33.928173264,2144.0
33.944884533,2215.0
33.961595802,2087.0
33.978307071,2174.0
33.995018340,2185.0
34.011729609,2133.0
34.028440878,2166.0
34.045152147,2106.0
34.061863416,2160.0
34.078574685,2093.0
34.095285954,2122.0
34.111997223,2079.0
34.128708492,2146.0
34.145419761,2103.0
34.162131030,2170.0
34.178842299,2079.0
34.195553568,2101.0
34.212264837,2101.0
34.228976106,2220.0
34.245687375,2205.0
34.262398644,2161.0
34.279109913,2108.0
34.295821182,2123.0
34.312532451,2097.0
34.329243720,2166.0
34.345954989,2144.0
34.362666258,2167.0
34.379377527,2069.0
34.396088796,2075.0
34.412800065,2140.0
34.429511334,2064.0
34.446222603,2092.0
34.462933872,2052.0
34.479645141,2184.0
34.496356410,2161.0
34.513067679,2094.0
34.529778947,2120.0
34.546490216,2207.0
34.563201485,2127.0
34.579912754,2111.0
34.596624023,2067.0
34.613335292,2119.0
34.630046561,2146.0
34.646757830,2185.0
34.663469099,2123.0
34.680180368,2184.0
34.696891637,2059.0
34.713602906,2144.0
34.730314175,2100.0
34.747025444,2113.0
34.763736713,2089.0
34.780447982,2099.0
34.797159251,2089.0
34.813870520,2131.0
34.830581789,2021.0
34.847293058,2141.0
34.864004327,2243.0
34.880715596,2193.0
34.897426865,2173.0
34.914138134,2092.0
34.930849403,2155.0
34.947560672,2134.0
34.964271941,2118.0
34.980983210,2263.0
34.997694479,2140.0
35.014405748,2138.0
35.031117017,2135.0
35.047828286,2193.0
35.064539555,2193.0
35.081250824,2192.0
35.097962093,2202.0
35.114673362,2143.0
35.131384631,2222.0
35.148095900,2168.0
35.164807169,2217.0
35.181518438,2143.0
35.198229707,2199.0
35.214940976,2192.0
35.231652245,2158.0
35.248363514,2184.0
35.265074783,2201.0
35.281786051,2191.0
35.298497320,2125.0
35.315208589,2228.0
35.331919858,2231.0
35.348631127,2251.0
35.365342396,2194.0
35.382053665,2227.0
35.398764934,2171.0
35.415476203,2236.0
35.432187472,2337.0
35.448898741,2220.0
35.465610010,2237.0
35.482321279,2284.0
35.499032548,2326.0
35.515743817,2263.0
35.532455086,2385.0
35.549166355,2380.0
35.565877624,2356.0
35.582588893,2416.0
35.599300162,2373.0
35.616011431,2397.0
35.632722700,2397.0
35.649433969,2412.0
35.666145238,2440.0
35.682856507,2479.0
35.699567776,2405.0
35.716279045,2389.0
35.732990314,2366.0
35.749701583,2510.0
35.766412852,2430.0
35.783124121,2406.0
35.799835390,2469.0
35.816546659,2445.0
35.833257928,2299.0
35.849969197,2391.0
35.866680466,2328.0
35.883391735,2241.0
35.900103004,2290.0
35.916814273,2318.0
35.933525542,2392.0
35.950236811,2347.0
35.966948080,2358.0
35.983659349,2258.0
36.000370618,2254.0
36.017081887,2227.0
36.033793156,2267.0
36.050504424,2174.0
36.067215693,2268.0
36.083926962,2305.0
36.100638231,2226.0
36.117349500,2204.0
36.134060769,2212.0
36.150772038,2379.0
36.167483307,2294.0
36.184194576,2208.0
36.200905845,2255.0
36.217617114,2157.0
36.234328383,2147.0
36.251039652,2257.0
36.267750921,2202.0
36.284462190,2173.0
36.301173459,2201.0
36.317884728,2193.0
36.334595997,2118.0
36.351307266,2221.0
36.368018535,2180.0
36.384729804,2310.0
36.401441073,2245.0
36.418152342,2257.0
36.434863611,2165.0
36.451574880,2194.0
36.468286149,2233.0
36.484997418,2214.0
36.501708687,2265.0
36.518419956,2199.0
36.535131225,2254.0
36.551842494,2297.0
36.568553763,2250.0
36.585265032,2260.0
36.601976301,2313.0
36.618687570,2347.0
36.635398839,2318.0
36.652110108,2414.0
36.668821377,2348.0
36.685532646,2346.0
36.702243915,2374.0
36.718955184,2302.0
36.735666453,2354.0
36.752377722,2353.0
36.769088991,2477.0
36.785800260,2492.0
36.802511528,2449.0
36.819222797,2511.0
36.835934066,2537.0
36.852645335,2550.0
36.869356604,2662.0
36.886067873,2719.0
36.902779142,2742.0
36.919490411,2796.0
36.936201680,2802.0
36.952912949,2959.0
36.969624218,3007.0
36.986335487,3107.0
37.003046756,3265.0
37.019758025,3422.0
37.036469294,3481.0
37.053180563,3640.0
37.069891832,3808.0
37.086603101,4112.0
37.103314370,4235.0
37.120025639,4507.0
37.136736908,4701.0
37.153448177,5072.0
37.170159446,5097.0
37.186870715,5453.0
37.203581984,5398.0
37.220293253,5616.0
37.237004522,5737.0
37.253715791,5793.0
37.270427060,5732.0
37.287138329,5796.0
37.303849598,5652.0
37.320560867,5661.0
37.337272136,5479.0
37.353983405,5162.0
37.370694674,5103.0
37.387405943,5022.0
37.404117212,4653.0
37.420828481,4451.0
37.437539750,4321.0
37.454251019,4038.0
37.470962288,3941.0
37.487673557,3631.0
37.504384826,3534.0
37.521096095,3350.0
37.537807364,3129.0
37.554518633,3056.0
37.571229901,3000.0
37.587941170,2917.0
37.604652439,2812.0
37.621363708,2704.0
37.638074977,2736.0
37.654786246,2584.0
37.671497515,2530.0
37.688208784,2502.0
37.704920053,2506.0
37.721631322,2449.0
37.738342591,2474.0
37.755053860,2491.0
37.771765129,2317.0
37.788476398,2312.0
37.805187667,2201.0
37.821898936,2329.0
37.838610205,2346.0
37.855321474,2287.0
37.872032743,2249.0
37.888744012,2212.0
37.905455281,2304.0
37.922166550,2293.0
37.938877819,2293.0
37.955589088,2247.0
37.972300357,2294.0
37.989011626,2244.0
38.005722895,2295.0
38.022434164,2195.0
38.039145433,2234.0
38.055856702,2155.0
38.072567971,2225.0
38.089279240,2185.0
38.105990509,2228.0
38.122701778,2123.0
38.139413047,2197.0
38.156124316,2238.0
38.172835585,2206.0
38.189546854,2284.0
38.206258123,2203.0
38.222969392,2147.0
38.239680661,2245.0
38.256391930,2171.0
38.273103199,2135.0
38.289814468,2098.0
38.306525737,2050.0
38.323237005,2196.0
38.339948274,2106.0
38.356659543,2155.0
38.373370812,2078.0
38.390082081,2075.0
38.406793350,2130.0
38.423504619,2001.0
38.440215888,2066.0
38.456927157,2064.0
38.473638426,2117.0
38.490349695,2057.0
38.507060964,2130.0
38.523772233,2085.0
38.540483502,2079.0
38.557194771,2118.0
38.573906040,2200.0
38.590617309,2165.0
38.607328578,2086.0
38.624039847,2135.0
38.640751116,2029.0
38.657462385,2174.0
38.674173654,2142.0
38.690884923,2165.0
38.707596192,2027.0
38.724307461,2102.0
38.741018730,2095.0
38.757729999,1967.0
38.774441268,2052.0
38.791152537,2006.0
38.807863806,2083.0
38.824575075,2063.0
38.841286344,2058.0
38.857997613,2043.0
38.874708882,2118.0
38.891420151,2103.0
38.908131420,2018.0
38.924842689,2060.0
38.941553958,2135.0
38.958265227,2015.0
38.974976496,2083.0
38.991687765,2113.0
39.008399034,2063.0
39.025110303,1991.0
39.041821572,2115.0
39.058532841,2079.0
39.075244110,2053.0
39.091955378,2075.0
39.108666647,2117.0
39.125377916,2038.0
39.142089185,2101.0
39.158800454,2082.0
39.175511723,2024.0
39.192222992,2041.0
39.208934261,2101.0
39.225645530,1998.0
39.242356799,2010.0
39.259068068,2095.0
39.275779337,2098.0
39.292490606,2136.0
39.309201875,2068.0
39.325913144,2011.0
39.342624413,2004.0
39.359335682,1948.0
39.376046951,2054.0
39.392758220,2079.0
39.409469489,1993.0
39.426180758,1989.0
39.442892027,2084.0
39.459603296,2051.0
39.476314565,2053.0
39.493025834,2083.0
39.509737103,1999.0
39.526448372,1948.0
39.543159641,1999.0
39.559870910,1992.0
39.576582179,2018.0
39.593293448,1997.0
39.610004717,2140.0
39.626715986,1996.0
39.643427255,2090.0
39.660138524,2109.0
39.676849793,2088.0
39.693561062,2209.0
39.710272331,2088.0
39.726983600,2168.0
39.743694869,2202.0
39.760406138,2298.0
39.777117407,2249.0
39.793828676,2511.0
39.810539945,2456.0
39.827251214,2529.0
39.843962482,2657.0
39.860673751,2675.0
39.877385020,2403.0
39.894096289,2333.0
39.910807558,2271.0
39.927518827,2370.0
39.944230096,2418.0
39.960941365,2398.0
39.977652634,2256.0
39.994363903,2185.0
40.011075172,2079.0
40.027786441,2061.0
40.044497710,2105.0
40.061208979,2088.0
40.077920248,2080.0
40.094631517,2160.0
40.111342786,2016.0
40.128054055,2058.0
40.144765324,2081.0
40.161476593,2210.0
40.178187862,2167.0
40.194899131,2177.0
40.211610400,2239.0
40.228321669,2074.0
40.245032938,2066.0
40.261744207,2132.0
40.278455476,2119.0
40.295166745,2082.0
40.311878014,2115.0
40.328589283,2078.0
40.345300552,2016.0
40.362011821,2042.0
40.378723090,2039.0
40.395434359,2024.0
40.412145628,1953.0
40.428856897,2074.0
40.445568166,1965.0
40.462279435,2026.0
40.478990704,2103.0
40.495701973,2036.0
40.512413242,1969.0
40.529124511,2019.0
40.545835780,2040.0
40.562547049,2035.0
40.579258318,2030.0
40.595969587,2039.0
40.612680855,1982.0
40.629392124,2005.0
40.646103393,2085.0
40.662814662,2008.0
40.679525931,2014.0
40.696237200,2043.0
40.712948469,2007.0
40.729659738,1922.0
40.746371007,2008.0
40.763082276,1957.0
40.779793545,2022.0
40.796504814,1953.0
40.813216083,2031.0
40.829927352,2028.0
40.846638621,2131.0
40.863349890,2005.0
40.880061159,1994.0
40.896772428,1973.0
40.913483697,2075.0
40.930194966,2029.0
40.946906235,2013.0
40.963617504,2091.0
40.980328773,1985.0
40.997040042,1923.0
41.013751311,1899.0
41.030462580,2020.0
41.047173849,2065.0
41.063885118,1946.0
41.080596387,1995.0
41.097307656,1971.0
41.114018925,2050.0
41.130730194,2033.0
41.147441463,2050.0
41.164152732,2018.0
41.180864001,2007.0
41.197575270,2007.0
41.214286539,1986.0
41.230997808,2050.0
41.247709077,2026.0
41.264420346,2070.0
41.281131615,1988.0
41.297842884,2078.0
41.314554153,2065.0
41.331265422,2015.0
41.347976691,2020.0
41.364687959,2033.0
41.381399228,2054.0
41.398110497,2003.0
41.414821766,2034.0
41.431533035,1983.0
41.448244304,2056.0
41.464955573,1950.0
41.481666842,2007.0
41.498378111,2064.0
41.515089380,2018.0
41.531800649,2067.0
41.548511918,2096.0
41.565223187,2045.0
41.581934456,2032.0
41.598645725,2051.0
41.615356994,2019.0
41.632068263,2068.0
41.648779532,1989.0
41.665490801,1997.0
41.682202070,2040.0
41.698913339,2004.0
41.715624608,2063.0
41.732335877,2058.0
41.749047146,2045.0
41.765758415,2029.0
41.782469684,2010.0
41.799180953,2045.0
41.815892222,1977.0
41.832603491,1971.0
41.849314760,2017.0
41.866026029,2068.0
41.882737298,1974.0
41.899448567,2157.0
41.916159836,2023.0
41.932871105,2112.0
41.949582374,1990.0
41.966293643,2173.0
41.983004912,2040.0
41.999716181,2062.0
42.016427450,2073.0
42.033138719,2055.0
42.049849988,1987.0
42.066561257,2026.0
42.083272526,2075.0
42.099983795,1997.0
42.116695064,2123.0
42.133406332,2082.0
42.150117601,2098.0
42.166828870,2074.0
42.183540139,2186.0
42.200251408,2039.0
42.216962677,2036.0
42.233673946,2107.0
42.250385215,2120.0
42.267096484,2135.0
42.283807753,2089.0
42.300519022,2101.0
42.317230291,2202.0
42.333941560,2155.0
42.350652829,2172.0
42.367364098,2106.0
42.384075367,2166.0
42.400786636,2168.0
42.417497905,2149.0
42.434209174,2092.0
42.450920443,2128.0
42.467631712,2150.0
42.484342981,2104.0
42.501054250,2097.0
42.517765519,2208.0
42.534476788,2218.0
42.551188057,2209.0
42.567899326,2248.0
42.584610595,2172.0
42.601321864,2233.0
42.618033133,2207.0
42.634744402,2283.0
42.651455671,2284.0
42.668166940,2352.0
42.684878209,2306.0
42.701589478,2280.0
42.718300747,2391.0
42.735012016,2390.0
42.751723285,2382.0
42.768434554,2448.0
42.785145823,2387.0
42.801857092,2458.0
42.818568361,2496.0
42.835279630,2469.0
42.851990899,2724.0
42.868702168,2606.0
42.885413436,2719.0
42.902124705,2804.0
42.918835974,2863.0
42.935547243,3009.0
42.952258512,2974.0
42.968969781,3107.0
42.985681050,3199.0
43.002392319,3324.0
43.019103588,3401.0
43.035814857,3578.0
43.052526126,3781.0
43.069237395,4173.0
43.085948664,4232.0
43.102659933,4577.0
43.119371202,4721.0
43.136082471,5229.0
43.152793740,5321.0
43.169505009,5646.0
43.186216278,5956.0
43.202927547,6291.0
43.219638816,6542.0
43.236350085,6700.0
43.253061354,6957.0
43.269772623,7223.0
43.286483892,7298.0
43.303195161,7247.0
43.319906430,7298.0
43.336617699,7261.0
43.353328968,7257.0
43.370040237,7212.0
43.386751506,6838.0
43.403462775,6596.0
43.420174044,6347.0
43.436885313,6134.0
43.453596582,5910.0
43.470307851,5656.0
43.487019120,5307.0
43.503730389,4891.0
43.520441658,4716.0
43.537152927,4491.0
43.553864196,4246.0
43.570575465,3955.0
43.587286734,3758.0
43.603998003,3642.0
43.620709272,3405.0
43.637420541,3316.0
43.654131809,3144.0
43.670843078,3071.0
43.687554347,2950.0
43.704265616,2896.0
43.720976885,2731.0
43.737688154,2626.0
43.754399423,2648.0
43.771110692,2757.0
43.787821961,2538.0
43.804533230,2496.0
43.821244499,2537.0
43.837955768,2402.0
43.854667037,2380.0
43.871378306,2349.0
43.888089575,2381.0
43.904800844,2421.0
43.921512113,2262.0
43.938223382,2282.0
43.954934651,2374.0
43.971645920,2178.0
43.988357189,2236.0
44.005068458,2223.0
44.021779727,2197.0
44.038490996,2060.0
44.055202265,2147.0
44.071913534,2092.0
44.088624803,2204.0
44.105336072,2132.0
44.122047341,2072.0
44.138758610,2165.0
44.155469879,2144.0
44.172181148,2052.0
44.188892417,2103.0
44.205603686,2118.0
44.222314955,2150.0
44.239026224,2037.0
44.255737493,2162.0
44.272448762,2133.0
44.289160031,2090.0
44.305871300,2079.0
44.322582569,2094.0
44.339293838,2052.0
44.356005107,2058.0
44.372716376,2031.0
44.389427645,2175.0
44.406138913,2053.0
44.422850182,2228.0
44.439561451,2072.0
44.456272720,2161.0
44.472983989,2113.0
44.489695258,2108.0
44.506406527,2153.0
44.523117796,2089.0
44.539829065,2117.0
44.556540334,2092.0
44.573251603,2065.0
44.589962872,2170.0
44.606674141,2046.0
44.623385410,2078.0
44.640096679,2047.0
44.656807948,1984.0
44.673519217,1994.0
44.690230486,2109.0
44.706941755,1943.0
44.723653024,1988.0
44.740364293,2049.0
44.757075562,2003.0
44.773786831,2014.0
44.790498100,2045.0
44.807209369,2040.0
44.823920638,2068.0
44.840631907,2035.0
44.857343176,2006.0
44.874054445,1978.0
44.890765714,1988.0
44.907476983,2004.0
44.924188252,1947.0
44.940899521,1914.0
44.957610790,1985.0
44.974322059,1932.0
44.991033328,2048.0
45.007744597,1986.0
45.024455866,2003.0
45.041167135,2060.0
45.057878404,1987.0
45.074589673,2104.0
45.091300942,2056.0
45.108012211,1923.0
45.124723480,1938.0
45.141434749,1992.0
45.158146018,2001.0
45.174857286,1976.0
45.191568555,1939.0
45.208279824,2001.0
45.224991093,1921.0
45.241702362,1956.0
45.258413631,2007.0
45.275124900,2074.0
45.291836169,2015.0
45.308547438,2050.0
45.325258707,2023.0
45.341969976,1977.0
45.358681245,2099.0
45.375392514,2046.0
45.392103783,2111.0
45.408815052,2204.0
45.425526321,2147.0
45.442237590,2126.0
45.458948859,2176.0
45.475660128,2066.0
45.492371397,2164.0
45.509082666,2173.0
45.525793935,2020.0
45.542505204,2204.0
45.559216473,2030.0
45.575927742,2156.0
45.592639011,2078.0
45.609350280,2122.0
45.626061549,2061.0
45.642772818,2058.0
45.659484087,1913.0
45.676195356,2066.0
45.692906625,1950.0
45.709617894,1977.0
45.726329163,1982.0
45.743040432,2069.0
45.759751701,1949.0
45.776462970,2053.0
45.793174239,2016.0
45.809885508,2019.0
45.826596777,1982.0
45.843308046,2091.0
45.860019315,1983.0
45.876730584,1998.0
45.893441853,1954.0
45.910153122,2015.0
45.926864390,2032.0
45.943575659,2048.0
45.960286928,2054.0
45.976998197,2089.0
45.993709466,1992.0
46.010420735,2172.0
46.027132004,2078.0
46.043843273,2150.0
46.060554542,2214.0
46.077265811,2242.0
46.093977080,2379.0
46.110688349,2339.0
46.127399618,2543.0
46.144110887,2622.0
46.160822156,2711.0
46.177533425,2827.0
46.194244694,3017.0
46.210955963,3085.0
46.227667232,3501.0
46.244378501,3861.0
46.261089770,4437.0
46.277801039,5076.0
46.294512308,5643.0
46.311223577,7339.0
46.327934846,8874.0
46.344646115,7935.0
46.361357384,5495.0
46.378068653,4303.0
46.394779922,3970.0
46.411491191,3929.0
46.428202460,4407.0
46.444913729,5419.0
46.461624998,5501.0
46.478336267,4366.0
46.495047536,3284.0
46.511758805,3035.0
46.528470074,2851.0
46.545181343,2876.0
46.561892612,2962.0
46.578603881,3120.0
46.595315150,3217.0
46.612026419,3284.0
46.628737688,3479.0
46.645448957,3461.0
46.662160226,3542.0
46.678871495,3669.0
46.695582763,3533.0
46.712294032,3626.0
46.729005301,3492.0
46.745716570,3344.0
46.762427839,3319.0
46.779139108,3111.0
46.795850377,3028.0
46.812561646,3094.0
46.829272915,2853.0
46.845984184,2821.0
46.862695453,2572.0
46.879406722,2437.0
46.896117991,2339.0
46.912829260,2227.0
46.929540529,2160.0
46.946251798,2138.0
46.962963067,2135.0
46.979674336,2087.0
46.996385605,1977.0
47.013096874,2002.0
47.029808143,2081.0
47.046519412,1966.0
47.063230681,1951.0
47.079941950,1972.0
47.096653219,1919.0
47.113364488,1943.0
47.130075757,1923.0
47.146787026,1927.0
47.163498295,1909.0
47.180209564,1872.0
47.196920833,1951.0
47.213632102,1897.0
47.230343371,1905.0
47.247054640,1925.0
47.263765909,1920.0
47.280477178,1890.0
47.297188447,1922.0
47.313899716,1854.0
47.330610985,1926.0
47.347322254,1893.0
47.364033523,1919.0
47.380744792,1951.0
47.397456061,1958.0
47.414167330,1969.0
47.430878599,1995.0
47.447589867,1841.0
47.464301136,1907.0
47.481012405,1843.0
47.497723674,1924.0
47.514434943,1956.0
47.531146212,1913.0
47.547857481,1844.0
47.564568750,1848.0
47.581280019,1875.0
47.597991288,1943.0
47.614702557,1857.0
47.631413826,1836.0
47.648125095,1792.0
47.664836364,1799.0
47.681547633,1903.0
47.698258902,1840.0
47.714970171,1918.0
47.731681440,1934.0
47.748392709,1841.0
47.765103978,1955.0
47.781815247,1918.0
47.798526516,1931.0
47.815237785,1901.0
47.831949054,1879.0
47.848660323,1902.0
47.865371592,1958.0
47.882082861,1906.0
47.898794130,1825.0
47.915505399,1878.0
47.932216668,1846.0
47.948927937,1882.0
47.965639206,1871.0
47.982350475,1884.0
47.999061744,1846.0
48.015773013,1962.0
48.032484282,1894.0
48.049195551,1941.0
48.065906820,1867.0
48.082618089,1874.0
48.099329358,1831.0
48.116040627,1895.0
48.132751896,1799.0
48.149463165,1887.0
48.166174434,1910.0
48.182885703,1836.0
48.199596972,1876.0
48.216308240,1807.0
48.233019509,1858.0
48.249730778,1821.0
48.266442047,1855.0
48.283153316,1844.0
48.299864585,1798.0
48.316575854,1857.0
48.333287123,1831.0
48.349998392,1893.0
48.366709661,1814.0
48.383420930,1796.0
48.400132199,1923.0
48.416843468,1857.0
48.433554737,1889.0
48.450266006,1835.0
48.466977275,1778.0
48.483688544,1869.0
48.500399813,1885.0
48.517111082,1909.0
48.533822351,1845.0
48.550533620,1773.0
48.567244889,1849.0
48.583956158,1816.0
48.600667427,1871.0
48.617378696,1824.0
48.634089965,1886.0
48.650801234,1827.0
48.667512503,1886.0
48.684223772,1863.0
48.700935041,1783.0
48.717646310,1916.0
48.734357579,1832.0
48.751068848,1844.0
48.767780117,1884.0
48.784491386,1850.0
48.801202655,1832.0
48.817913924,1909.0
48.834625193,1873.0
48.851336462,1853.0
48.868047731,1880.0
48.884759000,1890.0
48.901470269,1890.0
48.918181538,1881.0
48.934892807,1857.0
48.951604076,1911.0
48.968315344,1909.0
48.985026613,1804.0
49.001737882,1832.0
49.018449151,1730.0
49.035160420,1843.0
49.051871689,1889.0
49.068582958,1923.0
49.085294227,1866.0
49.102005496,1765.0
49.118716765,1808.0
49.135428034,1886.0
49.152139303,1862.0
49.168850572,1818.0
49.185561841,1779.0
49.202273110,1856.0
49.218984379,1888.0
49.235695648,1844.0
49.252406917,1819.0
49.269118186,1793.0
49.285829455,1847.0
49.302540724,1787.0
49.319251993,1800.0
49.335963262,1879.0
49.352674531,1852.0
49.369385800,1837.0
49.386097069,1885.0
49.402808338,1976.0
49.419519607,1746.0
49.436230876,1969.0
49.452942145,1929.0
49.469653414,1893.0
49.486364683,1968.0
49.503075952,1882.0
49.519787221,1946.0
49.536498490,1936.0
49.553209759,1991.0
49.569921028,1918.0
49.586632297,2035.0
49.603343566,1989.0
49.620054835,2097.0
49.636766104,1982.0
49.653477373,1980.0
49.670188642,1967.0
49.686899911,1979.0
49.703611180,1917.0
49.720322449,1950.0
49.737033717,1911.0
49.753744986,1944.0
49.770456255,1913.0
49.787167524,1795.0
49.803878793,1865.0
49.820590062,1859.0
49.837301331,1870.0
49.854012600,1859.0
49.870723869,1801.0
49.887435138,1893.0
49.904146407,1842.0
49.920857676,1854.0
49.937568945,1753.0
49.954280214,1838.0
49.970991483,1801.0
49.987702752,1853.0
50.004414021,1775.0
50.021125290,1865.0
50.037836559,1783.0
50.054547828,1843.0
50.071259097,1908.0
50.087970366,1812.0
50.104681635,1899.0
50.121392904,1810.0
50.138104173,1787.0
50.154815442,1852.0
50.171526711,1826.0
50.188237980,1915.0
50.204949249,1811.0
50.221660518,1816.0
50.238371787,1849.0
50.255083056,1969.0
50.271794325,1857.0
50.288505594,1903.0
50.305216863,1932.0
50.321928132,1832.0
50.338639401,1912.0
50.355350670,1860.0
50.372061939,1904.0
50.388773208,1960.0
50.405484477,1901.0
50.422195746,1867.0
50.438907015,2018.0
50.455618284,1969.0
50.472329553,2014.0
50.489040821,2013.0
50.505752090,2089.0
50.522463359,2172.0
50.539174628,2187.0
50.555885897,2210.0
50.572597166,2188.0
50.589308435,2169.0
50.606019704,2204.0
50.622730973,2253.0
50.639442242,2208.0
50.656153511,2239.0
50.672864780,2111.0
50.689576049,2175.0
50.706287318,2149.0
50.722998587,2131.0
50.739709856,2033.0
50.756421125,2014.0
50.773132394,1994.0
50.789843663,2035.0
50.806554932,1995.0
50.823266201,1916.0
50.839977470,1933.0
50.856688739,1867.0
50.873400008,1855.0
50.890111277,1914.0
50.906822546,1869.0
50.923533815,1911.0
50.940245084,1839.0
50.956956353,1845.0
50.973667622,1827.0
50.990378891,1872.0
51.007090160,1767.0
51.023801429,1857.0
51.040512698,1791.0
51.057223967,1738.0
51.073935236,1805.0
51.090646505,1930.0
51.107357774,1823.0
51.124069043,1784.0
51.140780312,1860.0
51.157491581,1725.0
51.174202850,1761.0
51.190914119,1734.0
51.207625388,1770.0
51.224336657,1851.0
51.241047926,1809.0
51.257759194,1716.0
51.274470463,1771.0
51.291181732,1860.0
51.307893001,1783.0
51.324604270,1749.0
51.341315539,1813.0
51.358026808,1778.0
51.374738077,1738.0
51.391449346,1768.0
51.408160615,1846.0
51.424871884,1719.0
51.441583153,1748.0
51.458294422,1820.0
51.475005691,1752.0
51.491716960,1826.0
51.508428229,1844.0
51.525139498,1792.0
51.541850767,1809.0
51.558562036,1783.0
51.575273305,1815.0
51.591984574,1825.0
51.608695843,1835.0
51.625407112,1901.0
51.642118381,1826.0
51.658829650,1803.0
51.675540919,1742.0
51.692252188,1882.0
51.708963457,1769.0
51.725674726,1707.0
51.742385995,1821.0
51.759097264,1833.0
51.775808533,1784.0
51.792519802,1728.0
51.809231071,1836.0
51.825942340,1826.0
51.842653609,1825.0
51.859364878,1804.0
51.876076147,1750.0
51.892787416,1798.0
51.909498685,1897.0
51.926209954,1849.0
51.942921223,1765.0
51.959632492,1788.0
51.976343761,1805.0
51.993055030,1824.0
52.009766299,1828.0
52.026477567,1789.0
52.043188836,1758.0
52.059900105,1834.0
52.076611374,1781.0
52.093322643,1867.0
52.110033912,1824.0
52.126745181,1813.0
52.143456450,1752.0
52.160167719,1766.0
52.176878988,1766.0
52.193590257,1840.0
52.210301526,1824.0
52.227012795,1824.0
52.243724064,1774.0
52.260435333,1901.0
52.277146602,1768.0
52.293857871,1765.0
52.310569140,1789.0
52.327280409,1760.0
52.343991678,1753.0
52.360702947,1716.0
52.377414216,1797.0
52.394125485,1853.0
52.410836754,1768.0
52.427548023,1752.0
52.444259292,1746.0
52.460970561,1808.0
52.477681830,1796.0
52.494393099,1709.0
52.511104368,1712.0
52.527815637,1765.0
52.544526906,1738.0
52.561238175,1716.0
52.577949444,1863.0
52.594660713,1736.0
52.611371982,1830.0
52.628083251,1770.0
52.644794520,1746.0
52.661505789,1806.0
52.678217058,1841.0
52.694928327,1872.0
52.711639596,1841.0
52.728350865,1787.0
52.745062134,1813.0
52.761773403,1776.0
52.778484671,1735.0
52.795195940,1763.0
52.811907209,1758.0
52.828618478,1792.0
52.845329747,1774.0
52.862041016,1756.0
52.878752285,1892.0
52.895463554,1825.0
52.912174823,1764.0
52.928886092,1777.0
52.945597361,1808.0
52.962308630,1752.0
52.979019899,1761.0
52.995731168,1770.0
53.012442437,1739.0
53.029153706,1777.0
53.045864975,1736.0
53.062576244,1786.0
53.079287513,1776.0
53.095998782,1828.0
53.112710051,1802.0
53.129421320,1749.0
53.146132589,1724.0
53.162843858,1792.0
53.179555127,1685.0
53.196266396,1862.0
53.212977665,1767.0
53.229688934,1739.0
53.246400203,1743.0
53.263111472,1773.0
53.279822741,1804.0
53.296534010,1758.0
53.313245279,1758.0
53.329956548,1787.0
53.346667817,1708.0
53.363379086,1812.0
53.380090355,1754.0
53.396801624,1778.0
53.413512893,1757.0
53.430224162,1791.0
53.446935431,1728.0
53.463646700,1788.0
53.480357969,1834.0
53.497069238,1790.0
53.513780507,1757.0
53.530491776,1775.0
53.547203044,1820.0
53.563914313,1700.0
53.580625582,1809.0
53.597336851,1824.0
53.614048120,1793.0
53.630759389,1737.0
53.647470658,1760.0
53.664181927,1767.0
53.680893196,1736.0
53.697604465,1759.0
53.714315734,1784.0
53.731027003,1690.0
53.747738272,1823.0
53.764449541,1778.0
53.781160810,1782.0
53.797872079,1805.0
53.814583348,1728.0
53.831294617,1787.0
53.848005886,1787.0
53.864717155,1786.0
53.881428424,1752.0
53.898139693,1810.0
53.914850962,1765.0
53.931562231,1773.0
53.948273500,1823.0
53.964984769,1772.0
53.981696038,1780.0
53.998407307,1716.0
54.015118576,1756.0
54.031829845,1797.0
54.048541114,1743.0
54.065252383,1675.0
54.081963652,1796.0
54.098674921,1767.0
54.115386190,1774.0
54.132097459,1755.0
54.148808728,1801.0
54.165519997,1829.0
54.182231266,1748.0
54.198942535,1825.0
54.215653804,1751.0
54.232365073,1737.0
54.249076342,1804.0
54.265787611,1762.0
54.282498880,1741.0
54.299210148,1809.0
54.315921417,1760.0
54.332632686,1750.0
54.349343955,1739.0
54.366055224,1774.0
54.382766493,1705.0
54.399477762,1766.0
54.416189031,1797.0
54.432900300,1719.0
54.449611569,1758.0
54.466322838,1736.0
54.483034107,1663.0
54.499745376,1714.0
54.516456645,1880.0
54.533167914,1746.0
54.549879183,1773.0
54.566590452,1724.0
54.583301721,1702.0
54.600012990,1785.0
54.616724259,1700.0
54.633435528,1781.0
54.650146797,1829.0
54.666858066,1826.0
54.683569335,1727.0
54.700280604,1689.0
54.716991873,1693.0
54.733703142,1725.0
54.750414411,1688.0
54.767125680,1806.0
54.783836949,1759.0
54.800548218,1750.0
54.817259487,1746.0
54.833970756,1739.0
54.850682025,1698.0
54.867393294,1739.0
54.884104563,1691.0
54.900815832,1778.0
54.917527101,1679.0
54.934238370,1750.0
54.950949639,1814.0
54.967660908,1775.0
54.984372177,1719.0
55.001083446,1811.0
55.017794715,1739.0
55.034505984,1763.0
55.051217253,1799.0
55.067928521,1686.0
55.084639790,1868.0
55.101351059,1726.0
55.118062328,1736.0
55.134773597,1694.0
55.151484866,1800.0
55.168196135,1691.0
55.184907404,1709.0
55.201618673,1652.0
55.218329942,1894.0
55.235041211,1670.0
55.251752480,1829.0
55.268463749,1674.0
55.285175018,1658.0
55.301886287,1693.0
55.318597556,1775.0
55.335308825,1774.0
55.352020094,1777.0
55.368731363,1708.0
55.385442632,1699.0
55.402153901,1740.0
55.418865170,1754.0
55.435576439,1709.0
55.452287708,1718.0
55.468998977,1714.0
55.485710246,1760.0
55.502421515,1774.0
55.519132784,1794.0
55.535844053,1803.0
55.552555322,1807.0
55.569266591,1718.0
55.585977860,1707.0
55.602689129,1756.0
55.619400398,1730.0
55.636111667,1750.0
55.652822936,1753.0
55.669534205,1718.0
55.686245474,1745.0
55.702956743,1706.0
55.719668012,1708.0
55.736379281,1770.0
55.753090550,1791.0
55.769801819,1703.0
55.786513088,1723.0
55.803224357,1739.0
55.819935625,1780.0
55.836646894,1790.0
55.853358163,1729.0
55.870069432,1712.0
55.886780701,1730.0
55.903491970,1728.0
55.920203239,1719.0
55.936914508,1757.0
55.953625777,1706.0
55.970337046,1754.0
55.987048315,1670.0
56.003759584,1725.0
56.020470853,1718.0
56.037182122,1771.0
56.053893391,1678.0
56.070604660,1681.0
56.087315929,1714.0
56.104027198,1778.0
56.120738467,1654.0
56.137449736,1720.0
56.154161005,1756.0
56.170872274,1707.0
56.187583543,1742.0
56.204294812,1703.0
56.221006081,1746.0
56.237717350,1722.0
56.254428619,1720.0
56.271139888,1724.0
56.287851157,1737.0
56.304562426,1698.0
56.321273695,1724.0
56.337984964,1719.0
56.354696233,1690.0
56.371407502,1743.0
56.388118771,1702.0
56.404830040,1739.0
56.421541309,1712.0
56.438252578,1738.0
56.454963847,1734.0
56.471675116,1758.0
56.488386385,1697.0
56.505097654,1700.0
56.521808923,1725.0
56.538520192,1728.0
56.555231461,1706.0
56.571942730,1765.0
56.588653998,1785.0
56.605365267,1722.0
56.622076536,1736.0
56.638787805,1728.0
56.655499074,1731.0
56.672210343,1713.0
56.688921612,1742.0
56.705632881,1746.0
56.722344150,1691.0
56.739055419,1711.0
56.755766688,1697.0
56.772477957,1764.0
56.789189226,1745.0
56.805900495,1802.0
56.822611764,1739.0
56.839323033,1722.0
56.856034302,1690.0
56.872745571,1726.0
56.889456840,1677.0
56.906168109,1718.0
56.922879378,1713.0
56.939590647,1698.0
56.956301916,1727.0
56.973013185,1774.0
56.989724454,1762.0
57.006435723,1671.0
57.023146992,1746.0
57.039858261,1679.0
57.056569530,1726.0
57.073280799,1748.0
57.089992068,1772.0
57.106703337,1711.0
57.123414606,1724.0
57.140125875,1817.0
57.156837144,1811.0
57.173548413,1748.0
57.190259682,1782.0
57.206970951,1705.0
57.223682220,1859.0
57.240393489,1797.0
57.257104758,1716.0
57.273816027,1811.0
57.290527296,1694.0
57.307238565,1715.0
57.323949834,1723.0
57.340661102,1801.0
57.357372371,1785.0
57.374083640,1848.0
57.390794909,1779.0
57.407506178,1744.0
57.424217447,1760.0
57.440928716,1808.0
57.457639985,1755.0
57.474351254,1752.0
57.491062523,1822.0
57.507773792,1780.0
57.524485061,1866.0
57.541196330,1820.0
57.557907599,1781.0
57.574618868,1778.0
57.591330137,1737.0
57.608041406,1753.0
57.624752675,1777.0
57.641463944,1765.0
57.658175213,1788.0
57.674886482,1800.0
57.691597751,1745.0
57.708309020,1650.0
57.725020289,1645.0
57.741731558,1729.0
57.758442827,1740.0
57.775154096,1777.0
57.791865365,1718.0
57.808576634,1644.0
57.825287903,1709.0
57.841999172,1678.0
57.858710441,1751.0
57.875421710,1769.0
57.892132979,1792.0
57.908844248,1754.0
57.925555517,1725.0
57.942266786,1758.0
57.958978055,1841.0
57.975689324,1673.0
57.992400593,1744.0
58.009111862,1749.0
58.025823131,1770.0
58.042534400,1699.0
58.059245669,1686.0
58.075956938,1691.0
58.092668207,1629.0
58.109379475,1723.0
58.126090744,1746.0
58.142802013,1714.0
58.159513282,1719.0
58.176224551,1669.0
58.192935820,1739.0
58.209647089,1756.0
58.226358358,1677.0
58.243069627,1654.0
58.259780896,1657.0
58.276492165,1753.0
58.293203434,1756.0
58.309914703,1707.0
58.326625972,1748.0
58.343337241,1710.0
58.360048510,1692.0
58.376759779,1780.0
58.393471048,1659.0
58.410182317,1741.0
58.426893586,1683.0
58.443604855,1773.0
58.460316124,1669.0
58.477027393,1741.0
58.493738662,1610.0
58.510449931,1731.0
58.527161200,1770.0
58.543872469,1736.0
58.560583738,1697.0
58.577295007,1699.0
58.594006276,1702.0
58.610717545,1732.0
58.627428814,1761.0
58.644140083,1765.0
58.660851352,1734.0
58.677562621,1731.0
58.694273890,1668.0
58.710985159,1620.0
58.727696428,1683.0
58.744407697,1713.0
58.761118966,1629.0
58.777830235,1690.0
58.794541504,1823.0
58.811252773,1716.0
58.827964042,1650.0
58.844675311,1717.0
58.861386579,1667.0
58.878097848,1698.0
58.894809117,1759.0
58.911520386,1676.0
58.928231655,1693.0
58.944942924,1704.0
58.961654193,1737.0
58.978365462,1792.0
58.995076731,1738.0
59.011788000,1819.0
59.028499269,1706.0
59.045210538,1706.0
59.061921807,1645.0
59.078633076,1659.0
59.095344345,1691.0
59.112055614,1726.0
59.128766883,1704.0
59.145478152,1674.0
59.162189421,1748.0
59.178900690,1765.0
59.195611959,1608.0
59.212323228,1723.0
59.229034497,1668.0
59.245745766,1699.0
59.262457035,1748.0
59.279168304,1668.0
59.295879573,1785.0
59.312590842,1728.0
59.329302111,1693.0
59.346013380,1644.0
59.362724649,1698.0
59.379435918,1684.0
59.396147187,1718.0
59.412858456,1652.0
59.429569725,1733.0
59.446280994,1676.0
59.462992263,1739.0
59.479703532,1712.0
59.496414801,1681.0
59.513126070,1689.0
59.529837339,1719.0
59.546548608,1638.0
59.563259877,1747.0
59.579971146,1683.0
59.596682415,1685.0
59.613393684,1743.0
59.630104952,1757.0
59.646816221,1735.0
59.663527490,1676.0
59.680238759,1808.0
59.696950028,1709.0
59.713661297,1682.0
59.730372566,1750.0
59.747083835,1701.0
59.763795104,1690.0
59.780506373,1749.0
59.797217642,1653.0
59.813928911,1744.0
59.830640180,1700.0
59.847351449,1674.0
59.864062718,1692.0
59.880773987,1731.0
59.897485256,1726.0
59.914196525,1763.0
59.930907794,1752.0
59.947619063,1713.0
59.964330332,1709.0
59.981041601,1659.0
59.997752870,1699.0
60.014464139,1712.0
60.031175408,1749.0
60.047886677,1707.0
60.064597946,1719.0
60.081309215,1698.0
60.098020484,1631.0
60.114731753,1717.0
60.131443022,1736.0
60.148154291,1707.0
60.164865560,1773.0
60.181576829,1721.0
60.198288098,1712.0
60.214999367,1762.0
60.231710636,1658.0
60.248421905,1776.0
60.265133174,1723.0
60.281844443,1732.0
60.298555712,1723.0
60.315266981,1676.0
60.331978250,1761.0
60.348689519,1704.0
60.365400788,1755.0
60.382112056,1705.0
60.398823325,1678.0
60.415534594,1679.0
60.432245863,1759.0
60.448957132,1714.0
60.465668401,1781.0
60.482379670,1717.0
60.499090939,1735.0
60.515802208,1714.0
60.532513477,1739.0
60.549224746,1804.0
60.565936015,1736.0
60.582647284,1752.0
60.599358553,1754.0
60.616069822,1672.0
60.632781091,1741.0
60.649492360,1748.0
60.666203629,1796.0
60.682914898,1761.0
60.699626167,1605.0
60.716337436,1750.0
60.733048705,1750.0
60.749759974,1731.0
60.766471243,1748.0
60.783182512,1741.0
60.799893781,1745.0
60.816605050,1833.0
60.833316319,1739.0
60.850027588,1661.0
60.866738857,1757.0
60.883450126,1684.0
60.900161395,1690.0
60.916872664,1671.0
60.933583933,1669.0
60.950295202,1715.0
60.967006471,1801.0
60.983717740,1688.0
61.000429009,1666.0
61.017140278,1750.0
61.033851547,1762.0
61.050562816,1734.0
61.067274085,1780.0
61.083985354,1769.0
61.100696623,1763.0
61.117407892,1718.0
61.134119161,1726.0
61.150830429,1730.0
61.167541698,1762.0
61.184252967,1727.0
61.200964236,1803.0
61.217675505,1712.0
61.234386774,1773.0
61.251098043,1751.0
61.267809312,1769.0
61.284520581,1792.0
61.301231850,1860.0
61.317943119,1775.0
61.334654388,1728.0
61.351365657,1735.0
61.368076926,1809.0
61.384788195,1751.0
61.401499464,1794.0
61.418210733,1803.0
61.434922002,1640.0
61.451633271,1807.0
61.468344540,1756.0
61.485055809,1748.0
61.501767078,1712.0
61.518478347,1859.0
61.535189616,1725.0
61.551900885,1747.0
61.568612154,1747.0
61.585323423,1797.0
61.602034692,1792.0
61.618745961,1748.0
61.635457230,1840.0
61.652168499,1768.0
61.668879768,1800.0
61.685591037,1720.0
61.702302306,1836.0
61.719013575,1801.0
61.735724844,1792.0
61.752436113,1814.0
61.769147382,1805.0
61.785858651,1754.0
61.802569920,1857.0
61.819281189,1808.0
61.835992458,1757.0
61.852703727,1823.0
61.869414996,1791.0
61.886126265,1739.0
61.902837533,1857.0
61.919548802,1886.0
61.936260071,1735.0
61.952971340,1773.0
61.969682609,1801.0
61.986393878,1833.0
62.003105147,1902.0
62.019816416,1811.0
62.036527685,1812.0
62.053238954,1804.0
62.069950223,1904.0
62.086661492,1790.0
62.103372761,1867.0
62.120084030,1826.0
62.136795299,1870.0
62.153506568,1822.0
62.170217837,1894.0
62.186929106,1805.0
62.203640375,1907.0
62.220351644,1819.0
62.237062913,1931.0
62.253774182,1910.0
62.270485451,1916.0
62.287196720,1938.0
62.303907989,1998.0
62.320619258,1912.0
62.337330527,1888.0
62.354041796,2048.0
62.370753065,1999.0
62.387464334,1953.0
62.404175603,2007.0
62.420886872,2044.0
62.437598141,2075.0
62.454309410,2041.0
62.471020679,2100.0
62.487731948,2135.0
62.504443217,2153.0
62.521154486,2239.0
62.537865755,2223.0
62.554577024,2326.0
62.571288293,2269.0
62.587999562,2374.0
62.604710831,2459.0
62.621422100,2460.0
62.638133369,2611.0
62.654844638,2574.0
62.671555906,2656.0
62.688267175,2676.0
62.704978444,2718.0
62.721689713,2930.0
62.738400982,2927.0
62.755112251,3157.0
62.771823520,3072.0
62.788534789,3364.0
62.805246058,3479.0
62.821957327,3374.0
62.838668596,3537.0
62.855379865,3523.0
62.872091134,3529.0
62.888802403,3535.0
62.905513672,3705.0
62.922224941,3576.0
62.938936210,3556.0
62.955647479,3655.0
62.972358748,3591.0
62.989070017,3594.0
63.005781286,3492.0
63.022492555,3510.0
63.039203824,3387.0
63.055915093,3371.0
63.072626362,3324.0
63.089337631,3180.0
63.106048900,3133.0
63.122760169,3029.0
63.139471438,2861.0
63.156182707,2810.0
63.172893976,2832.0
63.189605245,2666.0
63.206316514,2668.0
63.223027783,2592.0
63.239739052,2518.0
63.256450321,2512.0
63.273161590,2452.0
63.289872859,2364.0
63.306584128,2354.0
63.323295397,2258.0
63.340006666,2238.0
63.356717935,2267.0
63.373429204,2203.0
63.390140473,2126.0
63.406851742,2117.0
63.423563010,2062.0
63.440274279,2069.0
63.456985548,2078.0
63.473696817,2046.0
63.490408086,2012.0
63.507119355,2087.0
63.523830624,2035.0
63.540541893,1958.0
63.557253162,1995.0
63.573964431,1963.0
63.590675700,1883.0
63.607386969,1926.0
63.624098238,1936.0
63.640809507,1862.0
63.657520776,1939.0
63.674232045,1867.0
63.690943314,1954.0
63.707654583,1807.0
63.724365852,1892.0
63.741077121,1865.0
63.757788390,1844.0
63.774499659,1898.0
63.791210928,1845.0
63.807922197,1782.0
63.824633466,1831.0
63.841344735,1831.0
63.858056004,1842.0
63.874767273,1794.0
63.891478542,1835.0
63.908189811,1805.0
63.924901080,1801.0
63.941612349,1903.0
63.958323618,1814.0
63.975034887,1883.0
63.991746156,1827.0
64.008457425,1797.0
64.025168694,1888.0
64.041879963,1838.0
64.058591232,1825.0
64.075302501,1777.0
64.092013770,1827.0
64.108725039,1840.0
64.125436308,1820.0
64.142147577,1848.0
64.158858846,1839.0
64.175570115,1894.0
64.192281383,1830.0
64.208992652,1867.0
64.225703921,1805.0
64.242415190,1818.0
64.259126459,1855.0
64.275837728,1810.0
64.292548997,1741.0
64.309260266,1821.0
64.325971535,1805.0
64.342682804,1834.0
64.359394073,1792.0
64.376105342,1773.0
64.392816611,1833.0
64.409527880,1823.0
64.426239149,1836.0
64.442950418,1817.0
64.459661687,1885.0
64.476372956,1853.0
64.493084225,1844.0
64.509795494,1846.0
64.526506763,1773.0
64.543218032,1781.0
64.559929301,1833.0
64.576640570,1852.0
64.593351839,1847.0
64.610063108,1814.0
64.626774377,1839.0
64.643485646,1765.0
64.660196915,1804.0
64.676908184,1803.0
64.693619453,1759.0
64.710330722,1805.0
64.727041991,1832.0
64.743753260,1779.0
64.760464529,1803.0
64.777175798,1745.0
64.793887067,1765.0
64.810598336,1854.0
64.827309605,1869.0
64.844020874,1862.0
64.860732143,1829.0
64.877443412,1859.0
64.894154681,1794.0
64.910865950,1771.0
64.927577219,1815.0
64.944288487,1810.0
64.960999756,1762.0
64.977711025,1780.0
64.994422294,1863.0
65.011133563,1817.0
65.027844832,1811.0
65.044556101,1797.0
65.061267370,1804.0
65.077978639,1781.0
65.094689908,1768.0
65.111401177,1764.0
65.128112446,1797.0
65.144823715,1762.0
65.161534984,1811.0
65.178246253,1760.0
65.194957522,1885.0
65.211668791,1830.0
65.228380060,1828.0
65.245091329,1723.0
65.261802598,1720.0
65.278513867,1754.0
65.295225136,1807.0
65.311936405,1849.0
65.328647674,1760.0
65.345358943,1871.0
65.362070212,1763.0
65.378781481,1797.0
65.395492750,1744.0
65.412204019,1822.0
65.428915288,1863.0
65.445626557,1738.0
65.462337826,1809.0
65.479049095,1796.0
65.495760364,1761.0
65.512471633,1745.0
65.529182902,1717.0
65.545894171,1792.0
65.562605440,1806.0
65.579316709,1749.0
65.596027978,1804.0
65.612739247,1783.0
65.629450516,1750.0
65.646161785,1803.0
65.662873054,1917.0
65.679584323,1806.0
65.696295592,1848.0
65.713006860,1811.0
65.729718129,1766.0
65.746429398,1789.0
65.763140667,1798.0
65.779851936,1806.0
65.796563205,1829.0
65.813274474,1757.0
65.829985743,1809.0
65.846697012,1759.0
65.863408281,1813.0
65.880119550,1680.0
65.896830819,1738.0
65.913542088,1789.0
65.930253357,1777.0
65.946964626,1752.0
65.963675895,1832.0
65.980387164,1774.0
65.997098433,1791.0
66.013809702,1776.0
66.030520971,1806.0
66.047232240,1857.0
66.063943509,1754.0
66.080654778,1835.0
66.097366047,1731.0
66.114077316,1767.0
66.130788585,1836.0
66.147499854,1827.0
66.164211123,1788.0
66.180922392,1870.0
66.197633661,1776.0
66.214344930,1790.0
66.231056199,1838.0
66.247767468,1775.0
66.264478737,1870.0
66.281190006,1835.0
66.297901275,1786.0
66.314612544,1831.0
66.331323813,1823.0
66.348035082,1865.0
66.364746351,1781.0
66.381457620,1711.0
66.398168889,1804.0
66.414880158,1768.0
66.431591427,1781.0
66.448302696,1753.0
66.465013964,1867.0
66.481725233,1804.0
66.498436502,1898.0
66.515147771,1803.0
66.531859040,1740.0
66.548570309,1773.0
66.565281578,1806.0
66.581992847,1709.0
66.598704116,1735.0
66.615415385,1762.0
66.632126654,1869.0
66.648837923,1784.0
66.665549192,1851.0
66.682260461,1851.0
66.698971730,1758.0
66.715682999,1835.0
66.732394268,1742.0
66.749105537,1839.0
66.765816806,1785.0
66.782528075,1833.0
66.799239344,1826.0
66.815950613,1757.0
66.832661882,1838.0
66.849373151,1733.0
66.866084420,1794.0
66.882795689,1776.0
66.899506958,1769.0
66.916218227,1845.0
66.932929496,1769.0
66.949640765,1817.0
66.966352034,1769.0
66.983063303,1776.0
66.999774572,1704.0
67.016485841,1870.0
67.033197110,1784.0
67.049908379,1812.0
67.066619648,1811.0
67.083330917,1767.0
67.100042186,1812.0
67.116753455,1710.0
67.133464724,1783.0
67.150175993,1815.0
67.166887262,1784.0
67.183598531,1819.0
67.200309800,1826.0
67.217021069,1778.0
67.233732337,1896.0
67.250443606,1762.0
67.267154875,1806.0
67.283866144,1781.0
67.300577413,1776.0
67.317288682,1775.0
67.333999951,1796.0
67.350711220,1874.0
67.367422489,1804.0
67.384133758,1765.0
67.400845027,1827.0
67.417556296,1736.0
67.434267565,1770.0
67.450978834,1844.0
67.467690103,1814.0
67.484401372,1809.0
67.501112641,1857.0
67.517823910,1775.0
67.534535179,1806.0
67.551246448,1832.0
67.567957717,1773.0
67.584668986,1864.0
67.601380255,1751.0
67.618091524,1734.0
67.634802793,1820.0
67.651514062,1835.0
67.668225331,1723.0
67.684936600,1903.0
67.701647869,1693.0
67.718359138,1772.0
67.735070407,1828.0
67.751781676,1807.0
67.768492945,1798.0
67.785204214,1875.0
67.801915483,1778.0
67.818626752,1786.0
67.835338021,1808.0
67.852049290,1801.0
67.868760559,1792.0
67.885471828,1761.0
67.902183097,1733.0
67.918894366,1843.0
67.935605635,1755.0
67.952316904,1789.0
67.969028173,1820.0
67.985739441,1777.0
68.002450710,1857.0
68.019161979,1846.0
68.035873248,1760.0
68.052584517,1778.0
68.069295786,1905.0
68.086007055,1893.0
68.102718324,1848.0
68.119429593,1764.0
68.136140862,1793.0
68.152852131,1875.0
68.169563400,1822.0
68.186274669,1796.0
68.202985938,1817.0
68.219697207,1805.0
68.236408476,1892.0
68.253119745,1757.0
68.269831014,1823.0
68.286542283,1806.0
68.303253552,1744.0
68.319964821,1742.0
68.336676090,1822.0
68.353387359,1827.0
68.370098628,1828.0
68.386809897,1863.0
68.403521166,1803.0
68.420232435,1776.0
68.436943704,1800.0
68.453654973,1908.0
68.470366242,1809.0
68.487077511,1805.0
68.503788780,1753.0
68.520500049,1808.0
68.537211318,1750.0
68.553922587,1798.0
68.570633856,1740.0
68.587345125,1792.0
68.604056394,1807.0
68.620767663,1812.0
68.637478932,1818.0
68.654190201,1773.0
68.670901470,1724.0
68.687612739,1767.0
68.704324008,1802.0
68.721035277,1737.0
68.737746546,1797.0
68.754457814,1798.0
68.771169083,1721.0
68.787880352,1894.0
68.804591621,1893.0
68.821302890,1838.0
68.838014159,1674.0
68.854725428,1790.0
68.871436697,1776.0
68.888147966,1810.0
68.904859235,1829.0
68.921570504,1742.0
68.938281773,1831.0
68.954993042,1804.0
68.971704311,1768.0
68.988415580,1752.0
69.005126849,1788.0
69.021838118,1780.0
69.038549387,1732.0
69.055260656,1743.0
69.071971925,1620.0
69.088683194,1758.0
69.105394463,1722.0
69.122105732,1866.0
69.138817001,1788.0
69.155528270,1800.0
69.172239539,1817.0
69.188950808,1802.0
69.205662077,1790.0
69.222373346,1826.0
69.239084615,1798.0
69.255795884,1846.0
69.272507153,1810.0
69.289218422,1699.0
69.305929691,1809.0
69.322640960,1803.0
69.339352229,1923.0
69.356063498,1784.0
69.372774767,1737.0
69.389486036,1830.0
69.406197305,1908.0
69.422908574,1739.0
69.439619843,1786.0
69.456331112,1867.0
69.473042381,1804.0
69.489753650,1658.0
69.506464919,1776.0
69.523176187,1782.0
69.539887456,1789.0
69.556598725,1773.0
69.573309994,1837.0
69.590021263,1689.0
69.606732532,1788.0
69.623443801,1775.0
69.640155070,1771.0
69.656866339,1731.0
69.673577608,1685.0
69.690288877,1755.0
69.707000146,1782.0
69.723711415,1716.0
69.740422684,1696.0
69.757133953,1742.0
69.773845222,1804.0
69.790556491,1763.0
69.807267760,1744.0
69.823979029,1778.0
69.840690298,1795.0
69.857401567,1678.0
69.874112836,1688.0
69.890824105,1754.0
69.907535374,1718.0
69.924246643,1727.0
69.940957912,1830.0
69.957669181,1705.0
69.974380450,1703.0
69.991091719,1734.0
70.007802988,1739.0
70.024514257,1777.0
70.041225526,1720.0
70.057936795,1637.0
70.074648064,1808.0
70.091359333,1842.0
70.108070602,1738.0
70.124781871,1790.0
70.141493140,1715.0
70.158204409,1707.0
70.174915678,1759.0
70.191626947,1651.0
70.208338216,1798.0
70.225049485,1761.0
70.241760754,1761.0
70.258472023,1681.0
70.275183291,1733.0
70.291894560,1728.0
70.308605829,1741.0
70.325317098,1701.0
70.342028367,1738.0
70.358739636,1746.0
70.375450905,1729.0
70.392162174,1770.0
70.408873443,1725.0
70.425584712,1751.0
70.442295981,1670.0
70.459007250,1642.0
70.475718519,1778.0
70.492429788,1702.0
70.509141057,1654.0
70.525852326,1755.0
70.542563595,1777.0
70.559274864,1708.0
70.575986133,1727.0
70.592697402,1782.0
70.609408671,1721.0
70.626119940,1675.0
70.642831209,1759.0
70.659542478,1638.0
70.676253747,1667.0
70.692965016,1746.0
70.709676285,1748.0
70.726387554,1745.0
70.743098823,1751.0
70.759810092,1779.0
70.776521361,1725.0
70.793232630,1668.0
70.809943899,1758.0
70.826655168,1684.0
70.843366437,1731.0
70.860077706,1849.0
70.876788975,1687.0
70.893500244,1744.0
70.910211513,1824.0
70.926922782,1790.0
70.943634051,1725.0
70.960345320,1670.0
70.977056589,1699.0
70.993767858,1701.0
71.010479127,1751.0
71.027190396,1756.0
71.043901664,1743.0
71.060612933,1736.0
71.077324202,1714.0
71.094035471,1730.0
71.110746740,1652.0
71.127458009,1734.0
71.144169278,1696.0
71.160880547,1670.0
71.177591816,1688.0
71.194303085,1720.0
71.211014354,1713.0
71.227725623,1722.0
71.244436892,1680.0
71.261148161,1767.0
71.277859430,1691.0
71.294570699,1800.0
71.311281968,1720.0
71.327993237,1677.0
71.344704506,1725.0
71.361415775,1769.0
71.378127044,1696.0
71.394838313,1764.0
71.411549582,1654.0
71.428260851,1649.0
71.444972120,1689.0
71.461683389,1725.0
71.478394658,1659.0
71.495105927,1720.0
71.511817196,1749.0
71.528528465,1776.0
71.545239734,1729.0
71.561951003,1702.0
71.578662272,1764.0
71.595373541,1730.0
71.612084810,1633.0
71.628796079,1751.0
71.645507348,1730.0
71.662218617,1733.0
71.678929886,1692.0
71.695641155,1664.0
71.712352424,1716.0
71.729063693,1728.0
71.745774962,1702.0
71.762486231,1726.0
71.779197500,1714.0
71.795908768,1670.0
71.812620037,1687.0
71.829331306,1729.0
71.846042575,1648.0
71.862753844,1645.0
71.879465113,1721.0
71.896176382,1805.0
71.912887651,1724.0
71.929598920,1752.0
71.946310189,1738.0
71.963021458,1731.0
71.979732727,1674.0
71.996443996,1740.0
72.013155265,1698.0
72.029866534,1691.0
72.046577803,1741.0
72.063289072,1656.0
72.080000341,1714.0
72.096711610,1688.0
72.113422879,1698.0
72.130134148,1720.0
72.146845417,1751.0
72.163556686,1714.0
72.180267955,1635.0
72.196979224,1650.0
72.213690493,1738.0
72.230401762,1702.0
72.247113031,1705.0
72.263824300,1642.0
72.280535569,1573.0
72.297246838,1688.0
72.313958107,1767.0
72.330669376,1674.0
72.347380645,1687.0
72.364091914,1732.0
72.380803183,1713.0
72.397514452,1684.0
72.414225721,1592.0
72.430936990,1687.0
72.447648259,1623.0
72.464359528,1590.0
72.481070797,1667.0
72.497782066,1613.0
72.514493335,1700.0
72.531204604,1700.0
72.547915873,1638.0
72.564627141,1727.0
72.581338410,1700.0
72.598049679,1664.0
72.614760948,1689.0
72.631472217,1649.0
72.648183486,1643.0
72.664894755,1655.0
72.681606024,1642.0
72.698317293,1640.0
72.715028562,1697.0
72.731739831,1677.0
72.748451100,1660.0
72.765162369,1643.0
72.781873638,1701.0
72.798584907,1665.0
72.815296176,1684.0
72.832007445,1635.0
72.848718714,1625.0
72.865429983,1680.0
72.882141252,1580.0
72.898852521,1661.0
72.915563790,1617.0
72.932275059,1704.0
72.948986328,1580.0
72.965697597,1627.0
72.982408866,1665.0
72.999120135,1609.0
73.015831404,1653.0
73.032542673,1677.0
73.049253942,1726.0
73.065965211,1676.0
73.082676480,1624.0
73.099387749,1690.0
73.116099018,1664.0
73.132810287,1693.0
73.149521556,1604.0
73.166232825,1656.0
73.182944094,1695.0
73.199655363,1623.0
73.216366632,1631.0
73.233077901,1717.0
73.249789170,1669.0
73.266500439,1621.0
73.283211708,1707.0
73.299922977,1596.0
73.316634245,1715.0
73.333345514,1628.0
73.350056783,1646.0
73.366768052,1747.0
73.383479321,1619.0
73.400190590,1568.0
73.416901859,1666.0
73.433613128,1630.0
73.450324397,1704.0
73.467035666,1729.0
73.483746935,1634.0
73.500458204,1620.0
73.517169473,1633.0
73.533880742,1648.0
73.550592011,1679.0
73.567303280,1632.0
73.584014549,1625.0
73.600725818,1624.0
73.617437087,1664.0
73.634148356,1672.0
73.650859625,1729.0
73.667570894,1698.0
73.684282163,1603.0
73.700993432,1647.0
73.717704701,1649.0
73.734415970,1642.0
73.751127239,1578.0
73.767838508,1642.0
73.784549777,1604.0
73.801261046,1688.0
73.817972315,1609.0
73.834683584,1662.0
73.851394853,1648.0
73.868106122,1570.0
73.884817391,1579.0
73.901528660,1677.0
73.918239929,1590.0
73.934951198,1615.0
73.951662467,1621.0
73.968373736,1624.0
73.985085005,1694.0
74.001796274,1641.0
74.018507543,1632.0
74.035218812,1570.0
74.051930081,1614.0
74.068641350,1677.0
74.085352618,1623.0
74.102063887,1697.0
74.118775156,1669.0
74.135486425,1687.0
74.152197694,1576.0
74.168908963,1616.0
74.185620232,1677.0
74.202331501,1672.0
74.219042770,1656.0
74.235754039,1615.0
74.252465308,1630.0
74.269176577,1682.0
74.285887846,1691.0
74.302599115,1670.0
74.319310384,1654.0
74.336021653,1645.0
74.352732922,1675.0
74.369444191,1697.0
74.386155460,1643.0
74.402866729,1616.0
74.419577998,1645.0
74.436289267,1650.0
74.453000536,1684.0
74.469711805,1614.0
74.486423074,1657.0
74.503134343,1637.0
74.519845612,1653.0
74.536556881,1674.0
74.553268150,1646.0
74.569979419,1637.0
74.586690688,1668.0
74.603401957,1730.0
74.620113226,1671.0
74.636824495,1651.0
74.653535764,1601.0
74.670247033,1667.0
74.686958302,1647.0
74.703669571,1644.0
74.720380840,1671.0
74.737092109,1621.0
74.753803378,1576.0
74.770514647,1558.0
74.787225916,1708.0
74.803937185,1679.0
74.820648454,1653.0
74.837359722,1664.0
74.854070991,1623.0
74.870782260,1677.0
74.887493529,1656.0
74.904204798,1627.0
74.920916067,1671.0
74.937627336,1688.0
74.954338605,1714.0
74.971049874,1670.0
74.987761143,1740.0
75.004472412,1712.0
75.021183681,1654.0
75.037894950,1732.0
75.054606219,1681.0
75.071317488,1640.0
75.088028757,1759.0
75.104740026,1862.0
75.121451295,1829.0
75.138162564,1884.0
75.154873833,1757.0
75.171585102,1821.0
75.188296371,1844.0
75.205007640,1843.0
75.221718909,1833.0
75.238430178,1927.0
75.255141447,1877.0
75.271852716,1964.0
75.288563985,2047.0
75.305275254,1956.0
75.321986523,1985.0
75.338697792,2066.0
75.355409061,2131.0
75.372120330,2098.0
75.388831599,2127.0
75.405542868,2083.0
75.422254137,2078.0
75.438965406,2060.0
75.455676675,2172.0
75.472387944,2121.0
75.489099213,2102.0
75.505810482,2090.0
75.522521751,2053.0
75.539233020,2012.0
75.555944289,2089.0
75.572655558,1950.0
75.589366827,2153.0
75.606078095,2027.0
75.622789364,1969.0
75.639500633,2075.0
75.656211902,1939.0
75.672923171,1958.0
75.689634440,1942.0
75.706345709,2005.0
75.723056978,1923.0
75.739768247,1937.0
75.756479516,1868.0
75.773190785,1776.0
75.789902054,1884.0
75.806613323,1800.0
75.823324592,1781.0
75.840035861,1785.0
75.856747130,1687.0
75.873458399,1704.0
75.890169668,1706.0
75.906880937,1694.0
75.923592206,1749.0
75.940303475,1704.0
75.957014744,1705.0
75.973726013,1659.0
75.990437282,1661.0
76.007148551,1627.0
76.023859820,1589.0
76.040571089,1645.0
76.057282358,1703.0
76.073993627,1603.0
76.090704896,1685.0
76.107416165,1583.0
76.124127434,1626.0
76.140838703,1562.0
76.157549972,1616.0
76.174261241,1568.0
76.190972510,1591.0
76.207683779,1615.0
76.224395048,1624.0
76.241106317,1595.0
76.257817586,1635.0
76.274528855,1555.0
76.291240124,1596.0
76.307951393,1572.0
76.324662662,1529.0
76.341373931,1629.0
76.358085199,1620.0
76.374796468,1515.0
76.391507737,1544.0
76.408219006,1617.0
76.424930275,1571.0
76.441641544,1605.0
76.458352813,1560.0
76.475064082,1533.0
76.491775351,1567.0
76.508486620,1529.0
76.525197889,1549.0
76.541909158,1607.0
76.558620427,1550.0
76.575331696,1567.0
76.592042965,1566.0
76.608754234,1568.0
76.625465503,1546.0
76.642176772,1579.0
76.658888041,1559.0
76.675599310,1577.0
76.692310579,1567.0
76.709021848,1532.0
76.725733117,1533.0
76.742444386,1509.0
76.759155655,1519.0
76.775866924,1507.0
76.792578193,1492.0
76.809289462,1506.0
76.826000731,1518.0
76.842712000,1605.0
76.859423269,1598.0
76.876134538,1470.0
76.892845807,1527.0
76.909557076,1571.0
76.926268345,1591.0
76.942979614,1584.0
76.959690883,1558.0
76.976402152,1558.0
76.993113421,1531.0
77.009824690,1533.0
77.026535959,1557.0
77.043247228,1561.0
77.059958497,1548.0
77.076669766,1518.0
77.093381035,1476.0
77.110092304,1530.0
77.126803572,1476.0
77.143514841,1555.0
77.160226110,1582.0
77.176937379,1612.0
77.193648648,1515.0
77.210359917,1468.0
77.227071186,1509.0
77.243782455,1525.0
77.260493724,1559.0
77.277204993,1506.0
77.293916262,1563.0
77.310627531,1513.0
77.327338800,1534.0
77.344050069,1549.0
77.360761338,1484.0
77.377472607,1536.0
77.394183876,1499.0
77.410895145,1561.0
77.427606414,1509.0
77.444317683,1547.0
77.461028952,1541.0
77.477740221,1525.0
77.494451490,1570.0
77.511162759,1607.0
77.527874028,1510.0
77.544585297,1507.0
77.561296566,1536.0
77.578007835,1557.0
77.594719104,1521.0
77.611430373,1536.0
77.628141642,1564.0
77.644852911,1472.0
77.661564180,1591.0
77.678275449,1491.0
77.694986718,1464.0
77.711697987,1523.0
77.728409256,1547.0
77.745120525,1531.0
77.761831794,1496.0
77.778543063,1468.0
77.795254332,1479.0
77.811965601,1505.0
77.828676870,1585.0
77.845388139,1478.0
77.862099408,1500.0
77.878810676,1523.0
77.895521945,1545.0
77.912233214,1480.0
77.928944483,1512.0
77.945655752,1519.0
77.962367021,1573.0
77.979078290,1535.0
77.995789559,1505.0
78.012500828,1554.0
78.029212097,1525.0
78.045923366,1481.0
78.062634635,1485.0
78.079345904,1501.0
78.096057173,1446.0
78.112768442,1564.0
78.129479711,1479.0
78.146190980,1570.0
78.162902249,1472.0
78.179613518,1479.0
78.196324787,1524.0
78.213036056,1503.0
78.229747325,1509.0
78.246458594,1547.0
78.263169863,1539.0
78.279881132,1557.0
78.296592401,1533.0
78.313303670,1504.0
78.330014939,1469.0
78.346726208,1502.0
78.363437477,1507.0
78.380148746,1501.0
78.396860015,1497.0
78.413571284,1447.0
78.430282553,1542.0
78.446993822,1476.0
78.463705091,1423.0
78.480416360,1555.0
78.497127629,1526.0
78.513838898,1455.0
78.530550167,1404.0
78.547261436,1473.0
78.563972705,1545.0
78.580683974,1496.0
78.597395243,1542.0
78.614106512,1581.0
78.630817781,1519.0
78.647529049,1569.0
78.664240318,1491.0
78.680951587,1579.0
78.697662856,1433.0
78.714374125,1473.0
78.731085394,1544.0
78.747796663,1531.0
78.764507932,1499.0
78.781219201,1551.0
78.797930470,1497.0
78.814641739,1541.0
78.831353008,1570.0
78.848064277,1552.0
78.864775546,1485.0
78.881486815,1495.0
78.898198084,1528.0
78.914909353,1555.0
78.931620622,1535.0
78.948331891,1584.0
78.965043160,1536.0
78.981754429,1508.0
78.998465698,1576.0
79.015176967,1527.0
79.031888236,1614.0
79.048599505,1503.0
79.065310774,1569.0
79.082022043,1593.0
79.098733312,1550.0
79.115444581,1672.0
79.132155850,1660.0
79.148867119,1550.0
79.165578388,1693.0
79.182289657,1693.0
79.199000926,1667.0
79.215712195,1696.0
79.232423464,1651.0
79.249134733,1729.0
79.265846002,1673.0
79.282557271,1684.0
79.299268540,1678.0
79.315979809,1792.0
79.332691078,1815.0
79.349402347,1854.0
79.366113616,1790.0
79.382824885,1844.0
79.399536153,1786.0
79.416247422,1821.0
79.432958691,1794.0
79.449669960,1777.0
79.466381229,1827.0
79.483092498,1780.0
79.499803767,1855.0
79.516515036,1798.0
79.533226305,1800.0
79.549937574,1801.0
79.566648843,1745.0
79.583360112,1827.0
79.600071381,1805.0
79.616782650,1756.0
79.633493919,1743.0
79.650205188,1675.0
79.666916457,1783.0
79.683627726,1709.0
79.700338995,1785.0
79.717050264,1699.0
79.733761533,1708.0
79.750472802,1713.0
79.767184071,1671.0
79.783895340,1681.0
79.800606609,1580.0
79.817317878,1642.0
79.834029147,1586.0
79.850740416,1606.0
79.867451685,1648.0
79.884162954,1563.0
79.900874223,1607.0
79.917585492,1602.0
79.934296761,1511.0
79.951008030,1491.0
79.967719299,1537.0
79.984430568,1540.0
80.001141837,1561.0
80.017853106,1504.0
80.034564375,1506.0
80.051275644,1554.0
80.067986913,1560.0
80.084698182,1515.0
80.101409451,1482.0
80.118120720,1564.0
80.134831989,1518.0
80.151543258,1553.0
80.168254526,1469.0
80.184965795,1489.0
80.201677064,1476.0
80.218388333,1426.0
80.235099602,1490.0
80.251810871,1512.0
80.268522140,1448.0
80.285233409,1378.0
80.301944678,1481.0
80.318655947,1432.0
80.335367216,1380.0
80.352078485,1457.0
80.368789754,1491.0
80.385501023,1515.0
80.402212292,1530.0
80.418923561,1453.0
80.435634830,1454.0
80.452346099,1422.0
80.469057368,1396.0
80.485768637,1475.0
80.502479906,1481.0
80.519191175,1458.0
80.535902444,1524.0
80.552613713,1426.0
80.569324982,1458.0
80.586036251,1449.0
80.602747520,1421.0
80.619458789,1394.0
80.636170058,1440.0
80.652881327,1439.0
80.669592596,1451.0
80.686303865,1510.0
80.703015134,1470.0
80.719726403,1433.0
80.736437672,1479.0
80.753148941,1485.0
80.769860210,1381.0
80.786571479,1394.0
80.803282748,1416.0
80.819994017,1427.0
80.836705286,1445.0
80.853416555,1437.0
80.870127824,1424.0
80.886839093,1475.0
80.903550362,1438.0
80.920261630,1408.0
80.936972899,1490.0
80.953684168,1450.0
80.970395437,1476.0
80.987106706,1456.0
81.003817975,1462.0
81.020529244,1452.0
81.037240513,1545.0
81.053951782,1405.0
81.070663051,1425.0
81.087374320,1463.0
81.104085589,1434.0
81.120796858,1378.0
81.137508127,1378.0
81.154219396,1417.0
81.170930665,1384.0
81.187641934,1403.0
81.204353203,1429.0
81.221064472,1391.0
81.237775741,1388.0
81.254487010,1438.0
81.271198279,1427.0
81.287909548,1355.0
81.304620817,1385.0
81.321332086,1424.0
81.338043355,1365.0
81.354754624,1389.0
81.371465893,1351.0
81.388177162,1433.0
81.404888431,1393.0
81.421599700,1486.0
81.438310969,1374.0
81.455022238,1391.0
81.471733507,1383.0
81.488444776,1482.0
81.505156045,1443.0
81.521867314,1432.0
81.538578583,1431.0
81.555289852,1407.0
81.572001121,1424.0
81.588712390,1416.0
81.605423659,1386.0
81.622134928,1409.0
81.638846197,1425.0
81.655557466,1478.0
81.672268735,1455.0
81.688980003,1458.0
81.705691272,1397.0
81.722402541,1504.0
81.739113810,1360.0
81.755825079,1446.0
81.772536348,1431.0
81.789247617,1390.0
81.805958886,1430.0
81.822670155,1388.0
81.839381424,1418.0
81.856092693,1410.0
81.872803962,1423.0
81.889515231,1471.0
81.906226500,1349.0
81.922937769,1422.0
81.939649038,1477.0
81.956360307,1439.0
81.973071576,1436.0
81.989782845,1411.0
82.006494114,1419.0
82.023205383,1415.0
82.039916652,1415.0
82.056627921,1417.0
82.073339190,1377.0
82.090050459,1373.0
82.106761728,1447.0
82.123472997,1349.0
82.140184266,1391.0
82.156895535,1375.0
82.173606804,1476.0
82.190318073,1403.0
82.207029342,1445.0
82.223740611,1390.0
82.240451880,1447.0
82.257163149,1402.0
82.273874418,1425.0
82.290585687,1375.0
82.307296956,1386.0
82.324008225,1418.0
82.340719494,1405.0
82.357430763,1397.0
82.374142032,1403.0
82.390853301,1404.0
82.407564570,1449.0
82.424275839,1433.0
82.440987107,1426.0
82.457698376,1432.0
82.474409645,1461.0
82.491120914,1423.0
82.507832183,1394.0
82.524543452,1427.0
82.541254721,1401.0
82.557965990,1392.0
82.574677259,1422.0
82.591388528,1431.0
82.608099797,1411.0
82.624811066,1401.0
82.641522335,1342.0
82.658233604,1394.0
82.674944873,1418.0
82.691656142,1369.0
82.708367411,1358.0
82.725078680,1442.0
82.741789949,1407.0
82.758501218,1377.0
82.775212487,1397.0
82.791923756,1422.0
82.808635025,1381.0
82.825346294,1448.0
82.842057563,1417.0
82.858768832,1334.0
82.875480101,1343.0
82.892191370,1332.0
82.908902639,1429.0
82.925613908,1399.0
82.942325177,1403.0
82.959036446,1366.0
82.975747715,1461.0
82.992458984,1457.0
83.009170253,1392.0
83.025881522,1388.0
83.042592791,1384.0
83.059304060,1424.0
83.076015329,1369.0
83.092726598,1392.0
83.109437867,1345.0
83.126149136,1411.0
83.142860405,1337.0
83.159571674,1378.0
83.176282943,1407.0
83.192994212,1288.0
83.209705480,1485.0
83.226416749,1389.0
83.243128018,1421.0
83.259839287,1433.0
83.276550556,1391.0
83.293261825,1317.0
83.309973094,1420.0
83.326684363,1372.0
83.343395632,1322.0
83.360106901,1413.0
83.376818170,1395.0
83.393529439,1341.0
83.410240708,1419.0
83.426951977,1372.0
83.443663246,1322.0
83.460374515,1338.0
83.477085784,1349.0
83.493797053,1363.0
83.510508322,1360.0
83.527219591,1402.0
83.543930860,1429.0
83.560642129,1373.0
83.577353398,1343.0
83.594064667,1394.0
83.610775936,1373.0
83.627487205,1365.0
83.644198474,1393.0
83.660909743,1449.0
83.677621012,1368.0
83.694332281,1347.0
83.711043550,1360.0
83.727754819,1312.0
83.744466088,1438.0
83.761177357,1400.0
83.777888626,1373.0
83.794599895,1389.0
83.811311164,1343.0
83.828022433,1388.0
83.844733702,1414.0
83.861444971,1403.0
83.878156240,1325.0
83.894867509,1355.0
83.911578778,1315.0
83.928290047,1347.0
83.945001316,1397.0
83.961712584,1374.0
83.978423853,1313.0
83.995135122,1350.0
84.011846391,1424.0
84.028557660,1395.0
84.045268929,1381.0
84.061980198,1409.0
84.078691467,1336.0
84.095402736,1356.0
84.112114005,1408.0
84.128825274,1329.0
84.145536543,1280.0
84.162247812,1423.0
84.178959081,1401.0
84.195670350,1403.0
84.212381619,1394.0
84.229092888,1454.0
84.245804157,1360.0
84.262515426,1313.0
84.279226695,1426.0
84.295937964,1394.0
84.312649233,1367.0
84.329360502,1312.0
84.346071771,1292.0
84.362783040,1385.0
84.379494309,1356.0
84.396205578,1440.0
84.412916847,1370.0
84.429628116,1375.0
84.446339385,1323.0
84.463050654,1408.0
84.479761923,1345.0
84.496473192,1379.0
84.513184461,1408.0
84.529895730,1359.0
84.546606999,1375.0
84.563318268,1403.0
84.580029537,1416.0
84.596740806,1359.0
84.613452075,1370.0
84.630163344,1275.0
84.646874613,1397.0
84.663585882,1248.0
84.680297151,1339.0
84.697008420,1396.0
84.713719689,1391.0
84.730430957,1328.0
84.747142226,1260.0
84.763853495,1334.0
84.780564764,1391.0
84.797276033,1298.0
84.813987302,1295.0
84.830698571,1352.0
84.847409840,1406.0
84.864121109,1417.0
84.880832378,1343.0
84.897543647,1412.0
84.914254916,1396.0
84.930966185,1382.0
84.947677454,1403.0
84.964388723,1388.0
84.981099992,1365.0
84.997811261,1346.0
85.014522530,1379.0
85.031233799,1341.0
85.047945068,1305.0
85.064656337,1413.0
85.081367606,1355.0
85.098078875,1376.0
85.114790144,1360.0
85.131501413,1350.0
85.148212682,1344.0
85.164923951,1257.0
85.181635220,1310.0
85.198346489,1419.0
85.215057758,1341.0
85.231769027,1397.0
85.248480296,1385.0
85.265191565,1376.0
85.281902834,1334.0
85.298614103,1355.0
85.315325372,1332.0
85.332036641,1259.0
85.348747910,1323.0
85.365459179,1374.0
85.382170448,1397.0
85.398881717,1329.0
85.415592986,1345.0
85.432304255,1329.0
85.449015524,1358.0
85.465726793,1389.0
85.482438061,1316.0
85.499149330,1352.0
85.515860599,1315.0
85.532571868,1426.0
85.549283137,1389.0
85.565994406,1359.0
85.582705675,1363.0
85.599416944,1383.0
85.616128213,1334.0
85.632839482,1372.0
85.649550751,1381.0
85.666262020,1357.0
85.682973289,1343.0
85.699684558,1331.0
85.716395827,1424.0
85.733107096,1359.0
85.749818365,1400.0
85.766529634,1366.0
85.783240903,1395.0
85.799952172,1329.0
85.816663441,1346.0
85.833374710,1294.0
85.850085979,1350.0
85.866797248,1375.0
85.883508517,1412.0
85.900219786,1357.0
85.916931055,1353.0
85.933642324,1362.0
85.950353593,1294.0
85.967064862,1344.0
85.983776131,1345.0
86.000487400,1321.0
86.017198669,1364.0
86.033909938,1316.0
86.050621207,1376.0
86.067332476,1304.0
86.084043745,1323.0
86.100755014,1384.0
86.117466283,1276.0
86.134177552,1297.0
86.150888821,1331.0
86.167600090,1360.0
86.184311359,1370.0
86.201022628,1294.0
86.217733897,1322.0
86.234445166,1377.0
86.251156434,1298.0
86.267867703,1378.0
86.284578972,1307.0
86.301290241,1316.0
86.318001510,1336.0
86.334712779,1370.0
86.351424048,1329.0
86.368135317,1347.0
86.384846586,1351.0
86.401557855,1345.0
86.418269124,1331.0
86.434980393,1274.0
86.451691662,1399.0
86.468402931,1349.0
86.485114200,1376.0
86.501825469,1355.0
86.518536738,1349.0
86.535248007,1344.0
86.551959276,1282.0
86.568670545,1341.0
86.585381814,1424.0
86.602093083,1346.0
86.618804352,1356.0
86.635515621,1328.0
86.652226890,1331.0
86.668938159,1322.0
86.685649428,1315.0
86.702360697,1304.0
86.719071966,1320.0
86.735783235,1346.0
86.752494504,1377.0
86.769205773,1268.0
86.785917042,1309.0
86.802628311,1292.0
86.819339580,1313.0
86.836050849,1357.0
86.852762118,1349.0
86.869473387,1373.0
86.886184656,1337.0
86.902895925,1350.0
86.919607194,1336.0
86.936318463,1334.0
86.953029732,1324.0
86.969741001,1318.0
86.986452270,1346.0
87.003163539,1377.0
87.019874807,1366.0
87.036586076,1287.0
87.053297345,1329.0
87.070008614,1323.0
87.086719883,1315.0
87.103431152,1358.0
87.120142421,1324.0
87.136853690,1326.0
87.153564959,1327.0
87.170276228,1300.0
87.186987497,1344.0
87.203698766,1321.0
87.220410035,1307.0
87.237121304,1304.0
87.253832573,1369.0
87.270543842,1332.0
87.287255111,1301.0
87.303966380,1321.0
87.320677649,1350.0
87.337388918,1305.0
87.354100187,1326.0
87.370811456,1342.0
87.387522725,1353.0
87.404233994,1293.0
87.420945263,1379.0
87.437656532,1288.0
87.454367801,1286.0
87.471079070,1375.0
87.487790339,1351.0
87.504501608,1274.0
87.521212877,1279.0
87.537924146,1379.0
87.554635415,1374.0
87.571346684,1374.0
87.588057953,1391.0
87.604769222,1335.0
87.621480491,1381.0
87.638191760,1350.0
87.654903029,1307.0
87.671614298,1274.0
87.688325567,1385.0
87.705036836,1319.0
87.721748105,1255.0
87.738459374,1261.0
87.755170643,1285.0
87.771881911,1267.0
87.788593180,1341.0
87.805304449,1352.0
87.822015718,1306.0
87.838726987,1341.0
87.855438256,1286.0
87.872149525,1318.0
87.888860794,1312.0
87.905572063,1357.0
87.922283332,1310.0
87.938994601,1334.0
87.955705870,1302.0
87.972417139,1367.0
87.989128408,1390.0
88.005839677,1325.0
88.022550946,1326.0
88.039262215,1366.0
88.055973484,1385.0
88.072684753,1430.0
88.089396022,1297.0
88.106107291,1307.0
88.122818560,1352.0
88.139529829,1363.0
88.156241098,1320.0
88.172952367,1319.0
88.189663636,1355.0
88.206374905,1305.0
88.223086174,1357.0
88.239797443,1296.0
88.256508712,1245.0
88.273219981,1367.0
88.289931250,1335.0
88.306642519,1300.0
88.323353788,1295.0
88.340065057,1308.0
88.356776326,1357.0
88.373487595,1315.0
88.390198864,1309.0
88.406910133,1320.0
88.423621402,1374.0
88.440332671,1343.0
88.457043940,1341.0
88.473755209,1295.0
88.490466478,1308.0
88.507177747,1304.0
88.523889016,1345.0
88.540600284,1274.0
88.557311553,1338.0
88.574022822,1362.0
88.590734091,1320.0
88.607445360,1309.0
88.624156629,1378.0
88.640867898,1377.0
88.657579167,1355.0
88.674290436,1334.0
88.691001705,1310.0
88.707712974,1355.0
88.724424243,1293.0
88.741135512,1230.0
88.757846781,1275.0
88.774558050,1314.0
88.791269319,1389.0
88.807980588,1294.0
88.824691857,1311.0
88.841403126,1276.0
88.858114395,1306.0
88.874825664,1242.0
88.891536933,1305.0
88.908248202,1234.0
88.924959471,1349.0
88.941670740,1329.0
88.958382009,1332.0
88.975093278,1325.0
88.991804547,1352.0
89.008515816,1324.0
89.025227085,1284.0
89.041938354,1313.0
89.058649623,1306.0
89.075360892,1258.0
89.092072161,1329.0
89.108783430,1272.0
89.125494699,1339.0
89.142205968,1342.0
89.158917237,1363.0
89.175628506,1301.0
89.192339775,1360.0
89.209051044,1256.0
89.225762313,1346.0
89.242473582,1347.0
89.259184851,1322.0
89.275896120,1252.0
89.292607388,1352.0
89.309318657,1322.0
89.326029926,1236.0
89.342741195,1277.0
89.359452464,1268.0
89.376163733,1295.0
89.392875002,1376.0
89.409586271,1326.0
89.426297540,1294.0
89.443008809,1310.0
89.459720078,1351.0
89.476431347,1350.0
89.493142616,1230.0
89.509853885,1258.0
89.526565154,1381.0
89.543276423,1288.0
89.559987692,1298.0
89.576698961,1211.0
89.593410230,1325.0
89.610121499,1305.0
89.626832768,1211.0
89.643544037,1248.0
89.660255306,1301.0
89.676966575,1397.0
89.693677844,1314.0
89.710389113,1292.0
89.727100382,1239.0
89.743811651,1275.0
89.760522920,1266.0
89.777234189,1285.0
89.793945458,1273.0
89.810656727,1341.0
89.827367996,1309.0
89.844079265,1352.0
89.860790534,1361.0
89.877501803,1292.0
89.894213072,1290.0
89.910924341,1299.0
89.927635610,1341.0
89.944346879,1342.0
89.961058148,1277.0
89.977769417,1267.0
89.994480686,1313.0
90.011191955,1280.0
90.027903224,1331.0
90.044614493,1350.0
90.061325761,1362.0
90.078037030,1297.0
90.094748299,1310.0
90.111459568,1337.0
90.128170837,1275.0
90.144882106,1355.0
90.161593375,1329.0
90.178304644,1331.0
90.195015913,1327.0
90.211727182,1417.0
90.228438451,1360.0
90.245149720,1333.0
90.261860989,1277.0
90.278572258,1403.0
90.295283527,1283.0
90.311994796,1304.0
90.328706065,1290.0
90.345417334,1236.0
90.362128603,1268.0
90.378839872,1306.0
90.395551141,1297.0
90.412262410,1317.0
90.428973679,1370.0
90.445684948,1283.0
90.462396217,1306.0
90.479107486,1275.0
90.495818755,1328.0
90.512530024,1294.0
90.529241293,1319.0
90.545952562,1295.0
90.562663831,1358.0
90.579375100,1306.0
90.596086369,1363.0
90.612797638,1305.0
90.629508907,1353.0
90.646220176,1280.0
90.662931445,1258.0
90.679642714,1254.0
90.696353983,1350.0
90.713065252,1322.0
90.729776521,1275.0
90.746487790,1346.0
90.763199059,1275.0
90.779910328,1277.0
90.796621597,1283.0
90.813332865,1319.0
90.830044134,1249.0
90.846755403,1255.0
90.863466672,1260.0
90.880177941,1328.0
90.896889210,1298.0
90.913600479,1268.0
90.930311748,1303.0
90.947023017,1361.0
90.963734286,1329.0
90.980445555,1254.0
90.997156824,1306.0
91.013868093,1273.0
91.030579362,1209.0
91.047290631,1265.0
91.064001900,1311.0
91.080713169,1290.0
91.097424438,1344.0
91.114135707,1243.0
91.130846976,1343.0
91.147558245,1250.0
91.164269514,1346.0
91.180980783,1263.0
91.197692052,1260.0
91.214403321,1229.0
91.231114590,1252.0
91.247825859,1322.0
91.264537128,1320.0
91.281248397,1317.0
91.297959666,1274.0
91.314670935,1250.0
91.331382204,1315.0
91.348093473,1161.0
91.364804742,1299.0
91.381516011,1283.0
91.398227280,1286.0
91.414938549,1265.0
91.431649818,1343.0
91.448361087,1268.0
91.465072356,1277.0
91.481783625,1308.0
91.498494894,1300.0
91.515206163,1216.0
91.531917432,1257.0
91.548628701,1228.0
91.565339970,1275.0
91.582051238,1251.0
91.598762507,1296.0
91.615473776,1331.0
91.632185045,1268.0
91.648896314,1361.0
91.665607583,1292.0
91.682318852,1325.0
91.699030121,1249.0
91.715741390,1263.0
91.732452659,1332.0
91.749163928,1253.0
91.765875197,1241.0
91.782586466,1315.0
91.799297735,1314.0
91.816009004,1254.0
91.832720273,1278.0
91.849431542,1255.0
91.866142811,1270.0
91.882854080,1309.0
91.899565349,1321.0
91.916276618,1298.0
91.932987887,1343.0
91.949699156,1286.0
91.966410425,1222.0
91.983121694,1251.0
91.999832963,1310.0
92.016544232,1252.0
92.033255501,1315.0
92.049966770,1286.0
92.066678039,1276.0
92.083389308,1270.0
92.100100577,1282.0
92.116811846,1254.0
92.133523115,1332.0
92.150234384,1385.0
92.166945653,1296.0
92.183656922,1282.0
92.200368191,1276.0
92.217079460,1251.0
92.233790729,1200.0
92.250501998,1282.0
92.267213267,1243.0
92.283924536,1294.0
92.300635805,1263.0
92.317347074,1323.0
92.334058342,1266.0
92.350769611,1212.0
92.367480880,1299.0
92.384192149,1275.0
92.400903418,1271.0
92.417614687,1344.0
92.434325956,1279.0
92.451037225,1272.0
92.467748494,1203.0
92.484459763,1243.0
92.501171032,1358.0
92.517882301,1313.0
92.534593570,1170.0
92.551304839,1334.0
92.568016108,1280.0
92.584727377,1284.0
92.601438646,1302.0
92.618149915,1236.0
92.634861184,1284.0
92.651572453,1236.0
92.668283722,1306.0
92.684994991,1271.0
92.701706260,1301.0
92.718417529,1241.0
92.735128798,1342.0
92.751840067,1256.0
92.768551336,1203.0
92.785262605,1243.0
92.801973874,1247.0
92.818685143,1212.0
92.835396412,1267.0
92.852107681,1292.0
92.868818950,1259.0
92.885530219,1292.0
92.902241488,1261.0
92.918952757,1326.0
92.935664026,1247.0
92.952375295,1244.0
92.969086564,1258.0
92.985797833,1278.0
93.002509102,1203.0
93.019220371,1302.0
93.035931640,1286.0
93.052642909,1315.0
93.069354178,1323.0
93.086065447,1312.0
93.102776715,1238.0
93.119487984,1244.0
93.136199253,1280.0
93.152910522,1256.0
93.169621791,1258.0
93.186333060,1294.0
93.203044329,1320.0
93.219755598,1264.0
93.236466867,1266.0
93.253178136,1237.0
93.269889405,1311.0
93.286600674,1292.0
93.303311943,1280.0
93.320023212,1253.0
93.336734481,1303.0
93.353445750,1195.0
93.370157019,1257.0
93.386868288,1317.0
93.403579557,1233.0
93.420290826,1274.0
93.437002095,1324.0
93.453713364,1277.0
93.470424633,1323.0
93.487135902,1273.0
93.503847171,1313.0
93.520558440,1282.0
93.537269709,1271.0
93.553980978,1288.0
93.570692247,1252.0
93.587403516,1244.0
93.604114785,1236.0
93.620826054,1321.0
93.637537323,1292.0
93.654248592,1283.0
93.670959861,1275.0
93.687671130,1312.0
93.704382399,1269.0
93.721093668,1223.0
93.737804937,1232.0
93.754516206,1289.0
93.771227475,1266.0
93.787938744,1291.0
93.804650013,1296.0
93.821361282,1295.0
93.838072551,1269.0
93.854783819,1286.0
93.871495088,1244.0
93.888206357,1263.0
93.904917626,1327.0
93.921628895,1205.0
93.938340164,1340.0
93.955051433,1218.0
93.971762702,1270.0
93.988473971,1327.0
94.005185240,1255.0
94.021896509,1191.0
94.038607778,1293.0
94.055319047,1251.0
94.072030316,1278.0
94.088741585,1329.0
94.105452854,1244.0
94.122164123,1311.0
94.138875392,1222.0
94.155586661,1338.0
94.172297930,1284.0
94.189009199,1327.0
94.205720468,1250.0
94.222431737,1330.0
94.239143006,1292.0
94.255854275,1266.0
94.272565544,1315.0
94.289276813,1281.0
94.305988082,1279.0
94.322699351,1259.0
94.339410620,1278.0
94.356121889,1226.0
94.372833158,1254.0
94.389544427,1268.0
94.406255696,1233.0
94.422966965,1280.0
94.439678234,1241.0
94.456389503,1235.0
94.473100772,1245.0
94.489812041,1207.0
94.506523310,1272.0
94.523234579,1251.0
94.539945848,1333.0
94.556657117,1284.0
94.573368386,1288.0
94.590079655,1267.0
94.606790924,1345.0
94.623502192,1248.0
94.640213461,1297.0
94.656924730,1307.0
94.673635999,1244.0
94.690347268,1310.0
94.707058537,1305.0
94.723769806,1341.0
94.740481075,1291.0
94.757192344,1378.0
94.773903613,1295.0
94.790614882,1310.0
94.807326151,1325.0
94.824037420,1381.0
94.840748689,1328.0
94.857459958,1251.0
94.874171227,1270.0
94.890882496,1328.0
94.907593765,1288.0
94.924305034,1381.0
94.941016303,1384.0
94.957727572,1361.0
94.974438841,1363.0
94.991150110,1361.0
