[Measurement conditions]
Sample identification,
Comment - 1,"finito"
Comment - 2,"Configuration=MRI TC-Basic Stage, Owner=User-1, Creation date=26-10-2009 9:18:44"
Comment - 3,"Goniometer=PW3050/60 (Theta/Theta); Minimum step size 2Theta:0.001; Minimum step size Omega:0.001"
Comment - 4,"Sample stage=MRI TC-Basic (PtRh heat strip)"
Comment - 5,"Diffractometer system=XPERT-PRO"
Comment - 6,"Measurement program=FS-L, Owner=joana, Creation date=25-11-2014 17:28:08"
Anode material,Cu
K-Alpha1 wavelength,1.5405980
K-Alpha2 wavelength,1.5444260
Ratio K-Alpha2/K-Alpha1,0.500
Divergence slit,Fixed,0.76mm
Monochromator used,NO
Generator voltage, 45
Tube current, 40
File date and time,15-Dez-2017 18:25
Unit cell,
h k l, 0 0 0
Temperature [K],373
Scan axis,Gonio
Scan range,24.995999996,94.999505744
Scan step size,0.0167113
No. of points, 4189
Scan type,CONTINUOUS
Time per step,118.110
[Scan points]
Angle,Intensity
25.004355630,2446.0
25.021066899,2299.0
25.037778168,2291.0
25.054489437,2328.0
25.071200706,2309.0
25.087911975,2341.0
25.104623244,2372.0
25.121334513,2272.0
25.138045782,2288.0
25.154757051,2283.0
25.171468320,2304.0
25.188179589,2254.0
25.204890858,2374.0
25.221602127,2334.0
25.238313396,2207.0
25.255024665,2319.0
25.271735934,2243.0
25.288447203,2294.0
25.305158472,2292.0
25.321869741,2349.0
25.338581010,2279.0
25.355292279,2266.0
25.372003548,2226.0
25.388714816,2295.0
25.405426085,2280.0
25.422137354,2212.0
25.438848623,2313.0
25.455559892,2301.0
25.472271161,2253.0
25.488982430,2356.0
25.505693699,2235.0
25.522404968,2365.0
25.539116237,2215.0
25.555827506,2373.0
25.572538775,2303.0
25.589250044,2319.0
25.605961313,2311.0
25.622672582,2382.0
25.639383851,2237.0
25.656095120,2256.0
25.672806389,2273.0
25.689517658,2222.0
25.706228927,2262.0
25.722940196,2207.0
25.739651465,2204.0
25.756362734,2209.0
25.773074003,2212.0
25.789785272,2224.0
25.806496541,2209.0
25.823207810,2333.0
25.839919079,2264.0
25.856630348,2326.0
25.873341617,2286.0
25.890052886,2292.0
25.906764155,2216.0
25.923475424,2267.0
25.940186693,2308.0
25.956897962,2220.0
25.973609231,2303.0
25.990320500,2335.0
26.007031769,2295.0
26.023743038,2244.0
26.040454307,2304.0
26.057165576,2253.0
26.073876845,2174.0
26.090588114,2220.0
26.107299383,2213.0
26.124010652,2310.0
26.140721921,2263.0
26.157433189,2359.0
26.174144458,2296.0
26.190855727,2236.0
26.207566996,2276.0
26.224278265,2265.0
26.240989534,2220.0
26.257700803,2245.0
26.274412072,2170.0
26.291123341,2206.0
26.307834610,2242.0
26.324545879,2289.0
26.341257148,2235.0
26.357968417,2245.0
26.374679686,2247.0
26.391390955,2238.0
26.408102224,2299.0
26.424813493,2290.0
26.441524762,2283.0
26.458236031,2210.0
26.474947300,2258.0
26.491658569,2256.0
26.508369838,2205.0
26.525081107,2318.0
26.541792376,2129.0
26.558503645,2257.0
26.575214914,2199.0
26.591926183,2275.0
26.608637452,2248.0
26.625348721,2276.0
26.642059990,2254.0
26.658771259,2247.0
26.675482528,2206.0
26.692193797,2147.0
26.708905066,2233.0
26.725616335,2220.0
26.742327604,2278.0
26.759038873,2177.0
26.775750142,2270.0
26.792461411,2215.0
26.809172680,2222.0
26.825883949,2268.0
26.842595218,2347.0
26.859306487,2204.0
26.876017756,2278.0
26.892729025,2193.0
26.909440293,2181.0
26.926151562,2233.0
26.942862831,2278.0
26.959574100,2232.0
26.976285369,2283.0
26.992996638,2176.0
27.009707907,2241.0
27.026419176,2215.0
27.043130445,2061.0
27.059841714,2283.0
27.076552983,2175.0
27.093264252,2245.0
27.109975521,2211.0
27.126686790,2198.0
27.143398059,2234.0
27.160109328,2182.0
27.176820597,2262.0
27.193531866,2228.0
27.210243135,2142.0
27.226954404,2228.0
27.243665673,2247.0
27.260376942,2213.0
27.277088211,2243.0
27.293799480,2229.0
27.310510749,2151.0
27.327222018,2254.0
27.343933287,2240.0
27.360644556,2251.0
27.377355825,2177.0
27.394067094,2134.0
27.410778363,2206.0
27.427489632,2225.0
27.444200901,2201.0
27.460912170,2278.0
27.477623439,2153.0
27.494334708,2162.0
27.511045977,2168.0
27.527757246,2211.0
27.544468515,2235.0
27.561179784,2210.0
27.577891053,2155.0
27.594602322,2132.0
27.611313591,2239.0
27.628024860,2230.0
27.644736129,2275.0
27.661447398,2243.0
27.678158666,2221.0
27.694869935,2219.0
27.711581204,2170.0
27.728292473,2204.0
27.745003742,2245.0
27.761715011,2183.0
27.778426280,2245.0
27.795137549,2198.0
27.811848818,2249.0
27.828560087,2130.0
27.845271356,2278.0
27.861982625,2183.0
27.878693894,2263.0
27.895405163,2304.0
27.912116432,2300.0
27.928827701,2231.0
27.945538970,2195.0
27.962250239,2116.0
27.978961508,2232.0
27.995672777,2220.0
28.012384046,2087.0
28.029095315,2290.0
28.045806584,2231.0
28.062517853,2291.0
28.079229122,2251.0
28.095940391,2236.0
28.112651660,2160.0
28.129362929,2275.0
28.146074198,2306.0
28.162785467,2300.0
28.179496736,2222.0
28.196208005,2245.0
28.212919274,2298.0
28.229630543,2212.0
28.246341812,2427.0
28.263053081,2546.0
28.279764350,3279.0
28.296475619,3152.0
28.313186888,2434.0
28.329898157,2304.0
28.346609426,2685.0
28.363320695,2824.0
28.380031964,2485.0
28.396743233,2339.0
28.413454502,2389.0
28.430165770,2346.0
28.446877039,2412.0
28.463588308,2377.0
28.480299577,2291.0
28.497010846,2392.0
28.513722115,2415.0
28.530433384,2402.0
28.547144653,2438.0
28.563855922,2389.0
28.580567191,2431.0
28.597278460,2351.0
28.613989729,2415.0
28.630700998,2416.0
28.647412267,2416.0
28.664123536,2338.0
28.680834805,2309.0
28.697546074,2379.0
28.714257343,2366.0
28.730968612,2291.0
28.747679881,2413.0
28.764391150,2314.0
28.781102419,2385.0
28.797813688,2344.0
28.814524957,2265.0
28.831236226,2326.0
28.847947495,2259.0
28.864658764,2297.0
28.881370033,2309.0
28.898081302,2182.0
28.914792571,2243.0
28.931503840,2273.0
28.948215109,2218.0
28.964926378,2250.0
28.981637647,2298.0
28.998348916,2238.0
29.015060185,2241.0
29.031771454,2264.0
29.048482723,2281.0
29.065193992,2231.0
29.081905261,2271.0
29.098616530,2231.0
29.115327799,2252.0
29.132039068,2167.0
29.148750337,2371.0
29.165461606,2329.0
29.182172875,2212.0
29.198884143,2299.0
29.215595412,2220.0
29.232306681,2187.0
29.249017950,2250.0
29.265729219,2278.0
29.282440488,2281.0
29.299151757,2245.0
29.315863026,2271.0
29.332574295,2210.0
29.349285564,2304.0
29.365996833,2258.0
29.382708102,2293.0
29.399419371,2130.0
29.416130640,2195.0
29.432841909,2235.0
29.449553178,2202.0
29.466264447,2205.0
29.482975716,2268.0
29.499686985,2219.0
29.516398254,2225.0
29.533109523,2218.0
29.549820792,2159.0
29.566532061,2231.0
29.583243330,2134.0
29.599954599,2260.0
29.616665868,2147.0
29.633377137,2192.0
29.650088406,2190.0
29.666799675,2114.0
29.683510944,2141.0
29.700222213,2190.0
29.716933482,2183.0
29.733644751,2199.0
29.750356020,2104.0
29.767067289,2157.0
29.783778558,2079.0
29.800489827,2112.0
29.817201096,2216.0
29.833912365,2132.0
29.850623634,2156.0
29.867334903,2145.0
29.884046172,2187.0
29.900757441,2214.0
29.917468710,2126.0
29.934179979,2084.0
29.950891247,2248.0
29.967602516,2114.0
29.984313785,2174.0
30.001025054,2159.0
30.017736323,2143.0
30.034447592,2255.0
30.051158861,2224.0
30.067870130,2217.0
30.084581399,2144.0
30.101292668,2177.0
30.118003937,2211.0
30.134715206,2091.0
30.151426475,2119.0
30.168137744,2157.0
30.184849013,2191.0
30.201560282,2144.0
30.218271551,2112.0
30.234982820,2204.0
30.251694089,2236.0
30.268405358,2182.0
30.285116627,2214.0
30.301827896,2191.0
30.318539165,2193.0
30.335250434,2166.0
30.351961703,2161.0
30.368672972,2141.0
30.385384241,2119.0
30.402095510,2156.0
30.418806779,2108.0
30.435518048,2207.0
30.452229317,2111.0
30.468940586,2108.0
30.485651855,2144.0
30.502363124,2135.0
30.519074393,2095.0
30.535785662,2120.0
30.552496931,2126.0
30.569208200,2186.0
30.585919469,2112.0
30.602630738,2100.0
30.619342007,2169.0
30.636053276,2178.0
30.652764545,2172.0
30.669475814,2142.0
30.686187083,2200.0
30.702898352,2197.0
30.719609620,2152.0
30.736320889,2124.0
30.753032158,2176.0
30.769743427,2207.0
30.786454696,2110.0
30.803165965,2221.0
30.819877234,2204.0
30.836588503,2125.0
30.853299772,2111.0
30.870011041,2232.0
30.886722310,2101.0
30.903433579,2190.0
30.920144848,2171.0
30.936856117,2210.0
30.953567386,2208.0
30.970278655,2097.0
30.986989924,2097.0
31.003701193,2154.0
31.020412462,2159.0
31.037123731,2084.0
31.053835000,2191.0
31.070546269,2148.0
31.087257538,2190.0
31.103968807,2174.0
31.120680076,2246.0
31.137391345,2163.0
31.154102614,2142.0
31.170813883,2072.0
31.187525152,2220.0
31.204236421,2135.0
31.220947690,2092.0
31.237658959,2137.0
31.254370228,2188.0
31.271081497,2165.0
31.287792766,2188.0
31.304504035,2067.0
31.321215304,2151.0
31.337926573,2119.0
31.354637842,2096.0
31.371349111,2081.0
31.388060380,2137.0
31.404771649,2151.0
31.421482918,2174.0
31.438194187,2074.0
31.454905456,2089.0
31.471616724,2117.0
31.488327993,2205.0
31.505039262,2093.0
31.521750531,2213.0
31.538461800,2075.0
31.555173069,2081.0
31.571884338,2135.0
31.588595607,2091.0
31.605306876,2176.0
31.622018145,2085.0
31.638729414,2076.0
31.655440683,2134.0
31.672151952,2186.0
31.688863221,2154.0
31.705574490,2129.0
31.722285759,2152.0
31.738997028,2148.0
31.755708297,2175.0
31.772419566,2108.0
31.789130835,2077.0
31.805842104,2091.0
31.822553373,2165.0
31.839264642,2097.0
31.855975911,2103.0
31.872687180,2195.0
31.889398449,2164.0
31.906109718,2203.0
31.922820987,2140.0
31.939532256,2074.0
31.956243525,2161.0
31.972954794,2156.0
31.989666063,2067.0
32.006377332,2143.0
32.023088601,2012.0
32.039799870,2120.0
32.056511139,2088.0
32.073222408,2119.0
32.089933677,2148.0
32.106644946,2115.0
32.123356215,2071.0
32.140067484,2156.0
32.156778753,2077.0
32.173490022,2159.0
32.190201291,2079.0
32.206912560,2159.0
32.223623829,2168.0
32.240335097,2167.0
32.257046366,2126.0
32.273757635,2094.0
32.290468904,2113.0
32.307180173,2086.0
32.323891442,2064.0
32.340602711,2130.0
32.357313980,2116.0
32.374025249,2148.0
32.390736518,2080.0
32.407447787,2140.0
32.424159056,2160.0
32.440870325,2139.0
32.457581594,2154.0
32.474292863,2148.0
32.491004132,2123.0
32.507715401,2144.0
32.524426670,2187.0
32.541137939,2120.0
32.557849208,2123.0
32.574560477,2094.0
32.591271746,2043.0
32.607983015,2124.0
32.624694284,2096.0
32.641405553,2111.0
32.658116822,2101.0
32.674828091,2089.0
32.691539360,2088.0
32.708250629,2111.0
32.724961898,2124.0
32.741673167,2083.0
32.758384436,2118.0
32.775095705,2192.0
32.791806974,2207.0
32.808518243,2074.0
32.825229512,2080.0
32.841940781,2176.0
32.858652050,2181.0
32.875363319,2215.0
32.892074588,2087.0
32.908785857,2129.0
32.925497126,2123.0
32.942208395,2118.0
32.958919664,2073.0
32.975630933,2063.0
32.992342201,2029.0
33.009053470,2112.0
33.025764739,2116.0
33.042476008,2164.0
33.059187277,2067.0
33.075898546,2071.0
33.092609815,2104.0
33.109321084,2078.0
33.126032353,2100.0
33.142743622,2125.0
33.159454891,2059.0
33.176166160,2102.0
33.192877429,2048.0
33.209588698,2102.0
33.226299967,2099.0
33.243011236,2092.0
33.259722505,2142.0
33.276433774,2130.0
33.293145043,2067.0
33.309856312,2142.0
33.326567581,2156.0
33.343278850,2158.0
33.359990119,2185.0
33.376701388,2185.0
33.393412657,2154.0
33.410123926,2049.0
33.426835195,2136.0
33.443546464,2077.0
33.460257733,2107.0
33.476969002,2076.0
33.493680271,2091.0
33.510391540,2150.0
33.527102809,2023.0
33.543814078,2161.0
33.560525347,2054.0
33.577236616,2036.0
33.593947885,2100.0
33.610659154,2119.0
33.627370423,2142.0
33.644081692,2124.0
33.660792961,2157.0
33.677504230,2070.0
33.694215499,2100.0
33.710926768,2095.0
33.727638037,2088.0
33.744349306,2229.0
33.761060574,2083.0
33.777771843,2064.0
33.794483112,2083.0
33.811194381,2088.0
33.827905650,2121.0
33.844616919,2063.0
33.861328188,2098.0
33.878039457,2102.0
33.894750726,2089.0
33.911461995,2037.0
33.928173264,2090.0
33.944884533,2124.0
33.961595802,1976.0
33.978307071,2133.0
33.995018340,2126.0
34.011729609,2081.0
34.028440878,2038.0
34.045152147,2079.0
34.061863416,2081.0
34.078574685,2111.0
34.095285954,1951.0
34.111997223,2097.0
34.128708492,2023.0
34.145419761,2139.0
34.162131030,2172.0
34.178842299,2141.0
34.195553568,2144.0
34.212264837,2185.0
34.228976106,2112.0
34.245687375,2175.0
34.262398644,2107.0
34.279109913,2086.0
34.295821182,2029.0
34.312532451,2126.0
34.329243720,2094.0
34.345954989,2127.0
34.362666258,2090.0
34.379377527,2045.0
34.396088796,2059.0
34.412800065,2100.0
34.429511334,2033.0
34.446222603,2169.0
34.462933872,2104.0
34.479645141,2080.0
34.496356410,2056.0
34.513067679,2121.0
34.529778947,2082.0
34.546490216,2120.0
34.563201485,2045.0
34.579912754,2004.0
34.596624023,2055.0
34.613335292,2163.0
34.630046561,2116.0
34.646757830,2065.0
34.663469099,2105.0
34.680180368,2043.0
34.696891637,2151.0
34.713602906,2085.0
34.730314175,2056.0
34.747025444,2141.0
34.763736713,2102.0
34.780447982,2033.0
34.797159251,1991.0
34.813870520,2149.0
34.830581789,2077.0
34.847293058,2083.0
34.864004327,2021.0
34.880715596,2027.0
34.897426865,2068.0
34.914138134,2093.0
34.930849403,2125.0
34.947560672,2082.0
34.964271941,2104.0
34.980983210,2100.0
34.997694479,2117.0
35.014405748,2089.0
35.031117017,2019.0
35.047828286,2016.0
35.064539555,2067.0
35.081250824,2079.0
35.097962093,2031.0
35.114673362,2084.0
35.131384631,2140.0
35.148095900,2149.0
35.164807169,2048.0
35.181518438,2110.0
35.198229707,2131.0
35.214940976,2140.0
35.231652245,2084.0
35.248363514,2118.0
35.265074783,2060.0
35.281786051,2054.0
35.298497320,2047.0
35.315208589,2055.0
35.331919858,2020.0
35.348631127,2096.0
35.365342396,2110.0
35.382053665,2126.0
35.398764934,2135.0
35.415476203,2029.0
35.432187472,2117.0
35.448898741,2139.0
35.465610010,2061.0
35.482321279,2061.0
35.499032548,2093.0
35.515743817,2076.0
35.532455086,1992.0
35.549166355,2002.0
35.565877624,2174.0
35.582588893,2039.0
35.599300162,2179.0
35.616011431,2079.0
35.632722700,2064.0
35.649433969,2077.0
35.666145238,2166.0
35.682856507,2114.0
35.699567776,2012.0
35.716279045,2053.0
35.732990314,2079.0
35.749701583,2094.0
35.766412852,2113.0
35.783124121,2098.0
35.799835390,2012.0
35.816546659,2058.0
35.833257928,1957.0
35.849969197,2026.0
35.866680466,2090.0
35.883391735,2101.0
35.900103004,2118.0
35.916814273,2077.0
35.933525542,2025.0
35.950236811,2074.0
35.966948080,2066.0
35.983659349,2057.0
36.000370618,2129.0
36.017081887,2106.0
36.033793156,2174.0
36.050504424,2100.0
36.067215693,2010.0
36.083926962,2062.0
36.100638231,2104.0
36.117349500,1955.0
36.134060769,1994.0
36.150772038,2036.0
36.167483307,1995.0
36.184194576,2082.0
36.200905845,2112.0
36.217617114,2037.0
36.234328383,2009.0
36.251039652,2041.0
36.267750921,2118.0
36.284462190,2122.0
36.301173459,2086.0
36.317884728,2082.0
36.334595997,2041.0
36.351307266,2023.0
36.368018535,2093.0
36.384729804,2093.0
36.401441073,2068.0
36.418152342,2021.0
36.434863611,2019.0
36.451574880,2034.0
36.468286149,2001.0
36.484997418,1996.0
36.501708687,2108.0
36.518419956,2032.0
36.535131225,2059.0
36.551842494,2095.0
36.568553763,2123.0
36.585265032,2126.0
36.601976301,2051.0
36.618687570,2043.0
36.635398839,2085.0
36.652110108,2034.0
36.668821377,2035.0
36.685532646,2078.0
36.702243915,2000.0
36.718955184,1957.0
36.735666453,2001.0
36.752377722,2135.0
36.769088991,2186.0
36.785800260,2000.0
36.802511528,2066.0
36.819222797,2093.0
36.835934066,1995.0
36.852645335,2075.0
36.869356604,2074.0
36.886067873,1936.0
36.902779142,1991.0
36.919490411,2059.0
36.936201680,2096.0
36.952912949,2122.0
36.969624218,2094.0
36.986335487,1998.0
37.003046756,2052.0
37.019758025,2080.0
37.036469294,2143.0
37.053180563,2005.0
37.069891832,1920.0
37.086603101,2096.0
37.103314370,2017.0
37.120025639,2021.0
37.136736908,1995.0
37.153448177,2069.0
37.170159446,2039.0
37.186870715,2110.0
37.203581984,2045.0
37.220293253,2091.0
37.237004522,2070.0
37.253715791,2078.0
37.270427060,2040.0
37.287138329,2039.0
37.303849598,2110.0
37.320560867,2068.0
37.337272136,2009.0
37.353983405,1994.0
37.370694674,2029.0
37.387405943,2054.0
37.404117212,1992.0
37.420828481,2083.0
37.437539750,1999.0
37.454251019,2001.0
37.470962288,2151.0
37.487673557,2016.0
37.504384826,2023.0
37.521096095,2120.0
37.537807364,2040.0
37.554518633,2027.0
37.571229901,2139.0
37.587941170,2043.0
37.604652439,2011.0
37.621363708,2113.0
37.638074977,2040.0
37.654786246,2045.0
37.671497515,2062.0
37.688208784,2109.0
37.704920053,2032.0
37.721631322,2065.0
37.738342591,2019.0
37.755053860,2104.0
37.771765129,2050.0
37.788476398,2064.0
37.805187667,1998.0
37.821898936,2122.0
37.838610205,2048.0
37.855321474,2029.0
37.872032743,2009.0
37.888744012,2033.0
37.905455281,2020.0
37.922166550,2046.0
37.938877819,2166.0
37.955589088,1965.0
37.972300357,2085.0
37.989011626,2149.0
38.005722895,2109.0
38.022434164,2035.0
38.039145433,2137.0
38.055856702,2103.0
38.072567971,2066.0
38.089279240,2097.0
38.105990509,2040.0
38.122701778,1975.0
38.139413047,2101.0
38.156124316,2141.0
38.172835585,2022.0
38.189546854,2073.0
38.206258123,2020.0
38.222969392,2099.0
38.239680661,2135.0
38.256391930,2031.0
38.273103199,2202.0
38.289814468,2097.0
38.306525737,2062.0
38.323237005,2058.0
38.339948274,2025.0
38.356659543,2120.0
38.373370812,2016.0
38.390082081,2034.0
38.406793350,2039.0
38.423504619,2025.0
38.440215888,2054.0
38.456927157,2120.0
38.473638426,2133.0
38.490349695,1990.0
38.507060964,2031.0
38.523772233,2073.0
38.540483502,2093.0
38.557194771,2010.0
38.573906040,2089.0
38.590617309,2079.0
38.607328578,2037.0
38.624039847,2028.0
38.640751116,2024.0
38.657462385,2020.0
38.674173654,2026.0
38.690884923,1996.0
38.707596192,1934.0
38.724307461,2059.0
38.741018730,2050.0
38.757729999,2081.0
38.774441268,1920.0
38.791152537,1958.0
38.807863806,2012.0
38.824575075,2068.0
38.841286344,2113.0
38.857997613,1987.0
38.874708882,1980.0
38.891420151,1975.0
38.908131420,2003.0
38.924842689,1917.0
38.941553958,1997.0
38.958265227,2015.0
38.974976496,2071.0
38.991687765,2037.0
39.008399034,2038.0
39.025110303,2089.0
39.041821572,2086.0
39.058532841,2094.0
39.075244110,2057.0
39.091955378,2094.0
39.108666647,2038.0
39.125377916,2039.0
39.142089185,2011.0
39.158800454,2075.0
39.175511723,2044.0
39.192222992,2036.0
39.208934261,2026.0
39.225645530,2023.0
39.242356799,1992.0
39.259068068,1988.0
39.275779337,2002.0
39.292490606,2000.0
39.309201875,2062.0
39.325913144,2066.0
39.342624413,1984.0
39.359335682,2062.0
39.376046951,1987.0
39.392758220,2074.0
39.409469489,2063.0
39.426180758,2036.0
39.442892027,2085.0
39.459603296,2057.0
39.476314565,1968.0
39.493025834,2035.0
39.509737103,2046.0
39.526448372,2032.0
39.543159641,2174.0
39.559870910,2102.0
39.576582179,2165.0
39.593293448,2075.0
39.610004717,2055.0
39.626715986,2114.0
39.643427255,2081.0
39.660138524,2178.0
39.676849793,2195.0
39.693561062,2215.0
39.710272331,2225.0
39.726983600,2235.0
39.743694869,2314.0
39.760406138,2458.0
39.777117407,2329.0
39.793828676,2441.0
39.810539945,2562.0
39.827251214,2261.0
39.843962482,2160.0
39.860673751,2248.0
39.877385020,2245.0
39.894096289,2271.0
39.910807558,2301.0
39.927518827,2188.0
39.944230096,2124.0
39.960941365,2128.0
39.977652634,2099.0
39.994363903,1998.0
40.011075172,2076.0
40.027786441,2131.0
40.044497710,2188.0
40.061208979,2099.0
40.077920248,2133.0
40.094631517,2169.0
40.111342786,2126.0
40.128054055,2122.0
40.144765324,2116.0
40.161476593,2172.0
40.178187862,2156.0
40.194899131,2148.0
40.211610400,2034.0
40.228321669,2110.0
40.245032938,2092.0
40.261744207,2111.0
40.278455476,2047.0
40.295166745,2104.0
40.311878014,2049.0
40.328589283,2039.0
40.345300552,2112.0
40.362011821,1982.0
40.378723090,2078.0
40.395434359,2039.0
40.412145628,2021.0
40.428856897,1934.0
40.445568166,2104.0
40.462279435,2019.0
40.478990704,2097.0
40.495701973,1910.0
40.512413242,1900.0
40.529124511,2019.0
40.545835780,2032.0
40.562547049,2033.0
40.579258318,2048.0
40.595969587,1917.0
40.612680855,1897.0
40.629392124,1968.0
40.646103393,2018.0
40.662814662,2013.0
40.679525931,1984.0
40.696237200,2060.0
40.712948469,2036.0
40.729659738,2052.0
40.746371007,1961.0
40.763082276,2038.0
40.779793545,2007.0
40.796504814,2116.0
40.813216083,2099.0
40.829927352,2030.0
40.846638621,1964.0
40.863349890,1992.0
40.880061159,1923.0
40.896772428,1955.0
40.913483697,1914.0
40.930194966,1977.0
40.946906235,2021.0
40.963617504,2021.0
40.980328773,2002.0
40.997040042,1950.0
41.013751311,2033.0
41.030462580,1983.0
41.047173849,2054.0
41.063885118,1987.0
41.080596387,1973.0
41.097307656,2001.0
41.114018925,2026.0
41.130730194,1993.0
41.147441463,2013.0
41.164152732,2022.0
41.180864001,1907.0
41.197575270,2081.0
41.214286539,2093.0
41.230997808,2036.0
41.247709077,1982.0
41.264420346,1983.0
41.281131615,2057.0
41.297842884,2010.0
41.314554153,1929.0
41.331265422,2017.0
41.347976691,1962.0
41.364687959,1966.0
41.381399228,1971.0
41.398110497,2038.0
41.414821766,1974.0
41.431533035,2018.0
41.448244304,1988.0
41.464955573,2039.0
41.481666842,2019.0
41.498378111,2050.0
41.515089380,2035.0
41.531800649,1993.0
41.548511918,1945.0
41.565223187,1971.0
41.581934456,2028.0
41.598645725,1962.0
41.615356994,2044.0
41.632068263,2007.0
41.648779532,2045.0
41.665490801,1961.0
41.682202070,2045.0
41.698913339,2009.0
41.715624608,1980.0
41.732335877,1946.0
41.749047146,1998.0
41.765758415,1956.0
41.782469684,2081.0
41.799180953,2074.0
41.815892222,1974.0
41.832603491,1993.0
41.849314760,2055.0
41.866026029,2044.0
41.882737298,2012.0
41.899448567,2032.0
41.916159836,2058.0
41.932871105,1943.0
41.949582374,2083.0
41.966293643,1999.0
41.983004912,2071.0
41.999716181,1944.0
42.016427450,1967.0
42.033138719,2052.0
42.049849988,2007.0
42.066561257,2096.0
42.083272526,1995.0
42.099983795,2034.0
42.116695064,1991.0
42.133406332,2044.0
42.150117601,2000.0
42.166828870,1984.0
42.183540139,1914.0
42.200251408,1991.0
42.216962677,1937.0
42.233673946,2002.0
42.250385215,2080.0
42.267096484,1961.0
42.283807753,2101.0
42.300519022,2058.0
42.317230291,1980.0
42.333941560,2049.0
42.350652829,1978.0
42.367364098,2022.0
42.384075367,2004.0
42.400786636,2009.0
42.417497905,2023.0
42.434209174,1937.0
42.450920443,2015.0
42.467631712,2018.0
42.484342981,1978.0
42.501054250,1981.0
42.517765519,1969.0
42.534476788,2030.0
42.551188057,1961.0
42.567899326,2032.0
42.584610595,1958.0
42.601321864,2055.0
42.618033133,2005.0
42.634744402,1992.0
42.651455671,2107.0
42.668166940,1961.0
42.684878209,2049.0
42.701589478,2017.0
42.718300747,2023.0
42.735012016,2023.0
42.751723285,2075.0
42.768434554,2070.0
42.785145823,1999.0
42.801857092,2004.0
42.818568361,1953.0
42.835279630,2084.0
42.851990899,1983.0
42.868702168,2060.0
42.885413436,2040.0
42.902124705,1963.0
42.918835974,2067.0
42.935547243,2081.0
42.952258512,2066.0
42.968969781,2055.0
42.985681050,2053.0
43.002392319,2078.0
43.019103588,2115.0
43.035814857,2088.0
43.052526126,2085.0
43.069237395,2081.0
43.085948664,2132.0
43.102659933,2083.0
43.119371202,2062.0
43.136082471,2035.0
43.152793740,2096.0
43.169505009,2107.0
43.186216278,2106.0
43.202927547,2071.0
43.219638816,2144.0
43.236350085,2154.0
43.253061354,2129.0
43.269772623,2102.0
43.286483892,2231.0
43.303195161,2236.0
43.319906430,2162.0
43.336617699,2162.0
43.353328968,2228.0
43.370040237,2098.0
43.386751506,2190.0
43.403462775,2171.0
43.420174044,2235.0
43.436885313,2199.0
43.453596582,2207.0
43.470307851,2161.0
43.487019120,2193.0
43.503730389,2177.0
43.520441658,2170.0
43.537152927,2252.0
43.553864196,2275.0
43.570575465,2252.0
43.587286734,2271.0
43.603998003,2211.0
43.620709272,2350.0
43.637420541,2301.0
43.654131809,2425.0
43.670843078,2356.0
43.687554347,2343.0
43.704265616,2324.0
43.720976885,2465.0
43.737688154,2462.0
43.754399423,2450.0
43.771110692,2558.0
43.787821961,2645.0
43.804533230,2604.0
43.821244499,2552.0
43.837955768,2640.0
43.854667037,2657.0
43.871378306,2793.0
43.888089575,2883.0
43.904800844,2891.0
43.921512113,2918.0
43.938223382,2892.0
43.954934651,3056.0
43.971645920,3210.0
43.988357189,3193.0
44.005068458,3225.0
44.021779727,3431.0
44.038490996,3358.0
44.055202265,3646.0
44.071913534,3887.0
44.088624803,3951.0
44.105336072,4081.0
44.122047341,4374.0
44.138758610,4525.0
44.155469879,4690.0
44.172181148,4849.0
44.188892417,5205.0
44.205603686,5410.0
44.222314955,5738.0
44.239026224,6163.0
44.255737493,6559.0
44.272448762,6864.0
44.289160031,7293.0
44.305871300,7735.0
44.322582569,8233.0
44.339293838,8759.0
44.356005107,9124.0
44.372716376,9585.0
44.389427645,9947.0
44.406138913,10005.0
44.422850182,10051.0
44.439561451,9993.0
44.456272720,10180.0
44.472983989,9757.0
44.489695258,9000.0
44.506406527,8703.0
44.523117796,8021.0
44.539829065,7349.0
44.556540334,6941.0
44.573251603,6458.0
44.589962872,5844.0
44.606674141,5385.0
44.623385410,4968.0
44.640096679,4531.0
44.656807948,4061.0
44.673519217,3675.0
44.690230486,3483.0
44.706941755,3230.0
44.723653024,3112.0
44.740364293,2996.0
44.757075562,2794.0
44.773786831,2729.0
44.790498100,2653.0
44.807209369,2422.0
44.823920638,2499.0
44.840631907,2377.0
44.857343176,2395.0
44.874054445,2439.0
44.890765714,2346.0
44.907476983,2227.0
44.924188252,2224.0
44.940899521,2249.0
44.957610790,2238.0
44.974322059,2226.0
44.991033328,2211.0
45.007744597,2220.0
45.024455866,2241.0
45.041167135,2231.0
45.057878404,2225.0
45.074589673,2214.0
45.091300942,2225.0
45.108012211,2212.0
45.124723480,2113.0
45.141434749,2192.0
45.158146018,2186.0
45.174857286,2121.0
45.191568555,2164.0
45.208279824,2163.0
45.224991093,2139.0
45.241702362,2144.0
45.258413631,2181.0
45.275124900,2179.0
45.291836169,2133.0
45.308547438,2154.0
45.325258707,2145.0
45.341969976,2206.0
45.358681245,2072.0
45.375392514,2237.0
45.392103783,2318.0
45.408815052,2328.0
45.425526321,2233.0
45.442237590,2318.0
45.458948859,2175.0
45.475660128,2245.0
45.492371397,2223.0
45.509082666,2164.0
45.525793935,2181.0
45.542505204,2099.0
45.559216473,2185.0
45.575927742,2219.0
45.592639011,2203.0
45.609350280,2108.0
45.626061549,2106.0
45.642772818,2129.0
45.659484087,2086.0
45.676195356,2052.0
45.692906625,2165.0
45.709617894,1993.0
45.726329163,2054.0
45.743040432,2082.0
45.759751701,2043.0
45.776462970,2137.0
45.793174239,1988.0
45.809885508,2080.0
45.826596777,2135.0
45.843308046,2059.0
45.860019315,2121.0
45.876730584,2082.0
45.893441853,2124.0
45.910153122,2098.0
45.926864390,2133.0
45.943575659,2079.0
45.960286928,2179.0
45.976998197,2144.0
45.993709466,2165.0
46.010420735,2225.0
46.027132004,2332.0
46.043843273,2310.0
46.060554542,2421.0
46.077265811,2465.0
46.093977080,2559.0
46.110688349,2820.0
46.127399618,2940.0
46.144110887,3055.0
46.160822156,3317.0
46.177533425,3495.0
46.194244694,3665.0
46.210955963,4215.0
46.227667232,4986.0
46.244378501,5535.0
46.261089770,6765.0
46.277801039,8502.0
46.294512308,7989.0
46.311223577,5676.0
46.327934846,4289.0
46.344646115,4035.0
46.361357384,4113.0
46.378068653,4339.0
46.394779922,5113.0
46.411491191,5455.0
46.428202460,4464.0
46.444913729,3504.0
46.461624998,3045.0
46.478336267,3001.0
46.495047536,3065.0
46.511758805,3125.0
46.528470074,3152.0
46.545181343,3203.0
46.561892612,3340.0
46.578603881,3481.0
46.595315150,3553.0
46.612026419,3646.0
46.628737688,3789.0
46.645448957,3643.0
46.662160226,3740.0
46.678871495,3556.0
46.695582763,3579.0
46.712294032,3329.0
46.729005301,3254.0
46.745716570,3178.0
46.762427839,2986.0
46.779139108,3002.0
46.795850377,2847.0
46.812561646,2712.0
46.829272915,2592.0
46.845984184,2360.0
46.862695453,2380.0
46.879406722,2192.0
46.896117991,2174.0
46.912829260,2087.0
46.929540529,2098.0
46.946251798,2022.0
46.962963067,2084.0
46.979674336,2019.0
46.996385605,2004.0
47.013096874,2008.0
47.029808143,2075.0
47.046519412,1956.0
47.063230681,1929.0
47.079941950,1991.0
47.096653219,1999.0
47.113364488,1963.0
47.130075757,1970.0
47.146787026,1926.0
47.163498295,1875.0
47.180209564,1972.0
47.196920833,1872.0
47.213632102,1986.0
47.230343371,1889.0
47.247054640,1886.0
47.263765909,1974.0
47.280477178,1934.0
47.297188447,1906.0
47.313899716,1962.0
47.330610985,1928.0
47.347322254,1913.0
47.364033523,1981.0
47.380744792,1914.0
47.397456061,1958.0
47.414167330,1886.0
47.430878599,1941.0
47.447589867,1924.0
47.464301136,1870.0
47.481012405,1979.0
47.497723674,1859.0
47.514434943,1879.0
47.531146212,1893.0
47.547857481,1897.0
47.564568750,1924.0
47.581280019,1946.0
47.597991288,1928.0
47.614702557,1901.0
47.631413826,1926.0
47.648125095,1967.0
47.664836364,1921.0
47.681547633,1957.0
47.698258902,1888.0
47.714970171,1942.0
47.731681440,2013.0
47.748392709,1966.0
47.765103978,1894.0
47.781815247,1849.0
47.798526516,1842.0
47.815237785,1916.0
47.831949054,1861.0
47.848660323,1886.0
47.865371592,1928.0
47.882082861,1965.0
47.898794130,1910.0
47.915505399,1989.0
47.932216668,1940.0
47.948927937,1922.0
47.965639206,1963.0
47.982350475,1910.0
47.999061744,1964.0
48.015773013,1938.0
48.032484282,1971.0
48.049195551,1910.0
48.065906820,1944.0
48.082618089,1923.0
48.099329358,1948.0
48.116040627,1930.0
48.132751896,1929.0
48.149463165,1838.0
48.166174434,2022.0
48.182885703,1911.0
48.199596972,1905.0
48.216308240,1927.0
48.233019509,1919.0
48.249730778,1853.0
48.266442047,1915.0
48.283153316,1965.0
48.299864585,1875.0
48.316575854,1905.0
48.333287123,1929.0
48.349998392,1893.0
48.366709661,1913.0
48.383420930,1940.0
48.400132199,1939.0
48.416843468,1905.0
48.433554737,1867.0
48.450266006,1977.0
48.466977275,1893.0
48.483688544,1894.0
48.500399813,1835.0
48.517111082,1908.0
48.533822351,1983.0
48.550533620,1775.0
48.567244889,1905.0
48.583956158,1977.0
48.600667427,1864.0
48.617378696,1952.0
48.634089965,1864.0
48.650801234,1890.0
48.667512503,1916.0
48.684223772,1992.0
48.700935041,1931.0
48.717646310,1889.0
48.734357579,1788.0
48.751068848,1927.0
48.767780117,1834.0
48.784491386,1880.0
48.801202655,1934.0
48.817913924,1845.0
48.834625193,1863.0
48.851336462,1875.0
48.868047731,1864.0
48.884759000,1888.0
48.901470269,1850.0
48.918181538,1908.0
48.934892807,1860.0
48.951604076,1881.0
48.968315344,1926.0
48.985026613,1846.0
49.001737882,1925.0
49.018449151,1903.0
49.035160420,1986.0
49.051871689,1950.0
49.068582958,1904.0
49.085294227,1882.0
49.102005496,1917.0
49.118716765,1828.0
49.135428034,1911.0
49.152139303,1928.0
49.168850572,1900.0
49.185561841,1941.0
49.202273110,1906.0
49.218984379,1838.0
49.235695648,1855.0
49.252406917,1927.0
49.269118186,1922.0
49.285829455,1945.0
49.302540724,1972.0
49.319251993,1856.0
49.335963262,1977.0
49.352674531,1931.0
49.369385800,1900.0
49.386097069,1975.0
49.402808338,1931.0
49.419519607,1914.0
49.436230876,1992.0
49.452942145,1994.0
49.469653414,1940.0
49.486364683,1985.0
49.503075952,1969.0
49.519787221,2109.0
49.536498490,2015.0
49.553209759,1978.0
49.569921028,2187.0
49.586632297,2094.0
49.603343566,1965.0
49.620054835,2019.0
49.636766104,1989.0
49.653477373,2048.0
49.670188642,1927.0
49.686899911,1956.0
49.703611180,1997.0
49.720322449,1968.0
49.737033717,1941.0
49.753744986,1900.0
49.770456255,1985.0
49.787167524,1911.0
49.803878793,1951.0
49.820590062,1853.0
49.837301331,1880.0
49.854012600,1867.0
49.870723869,1922.0
49.887435138,1928.0
49.904146407,1930.0
49.920857676,1922.0
49.937568945,1891.0
49.954280214,1910.0
49.970991483,1847.0
49.987702752,1888.0
50.004414021,1981.0
50.021125290,1904.0
50.037836559,1888.0
50.054547828,1888.0
50.071259097,1933.0
50.087970366,1902.0
50.104681635,1947.0
50.121392904,1912.0
50.138104173,2023.0
50.154815442,1928.0
50.171526711,1919.0
50.188237980,1976.0
50.204949249,1934.0
50.221660518,1956.0
50.238371787,1978.0
50.255083056,1990.0
50.271794325,2000.0
50.288505594,1985.0
50.305216863,2028.0
50.321928132,2009.0
50.338639401,1950.0
50.355350670,2079.0
50.372061939,2056.0
50.388773208,2060.0
50.405484477,2065.0
50.422195746,2072.0
50.438907015,2138.0
50.455618284,2211.0
50.472329553,2221.0
50.489040821,2284.0
50.505752090,2319.0
50.522463359,2290.0
50.539174628,2452.0
50.555885897,2264.0
50.572597166,2348.0
50.589308435,2250.0
50.606019704,2353.0
50.622730973,2286.0
50.639442242,2353.0
50.656153511,2310.0
50.672864780,2287.0
50.689576049,2219.0
50.706287318,2174.0
50.722998587,2123.0
50.739709856,2117.0
50.756421125,2091.0
50.773132394,2070.0
50.789843663,2086.0
50.806554932,2117.0
50.823266201,2073.0
50.839977470,2036.0
50.856688739,2013.0
50.873400008,1978.0
50.890111277,2004.0
50.906822546,1930.0
50.923533815,2001.0
50.940245084,2029.0
50.956956353,1981.0
50.973667622,2058.0
50.990378891,1992.0
51.007090160,2093.0
51.023801429,2111.0
51.040512698,2042.0
51.057223967,2087.0
51.073935236,2077.0
51.090646505,2151.0
51.107357774,2146.0
51.124069043,2017.0
51.140780312,2077.0
51.157491581,2035.0
51.174202850,2175.0
51.190914119,2173.0
51.207625388,2175.0
51.224336657,2196.0
51.241047926,2196.0
51.257759194,2261.0
51.274470463,2315.0
51.291181732,2388.0
51.307893001,2397.0
51.324604270,2440.0
51.341315539,2407.0
51.358026808,2421.0
51.374738077,2407.0
51.391449346,2543.0
51.408160615,2579.0
51.424871884,2676.0
51.441583153,2587.0
51.458294422,2834.0
51.475005691,2864.0
51.491716960,2889.0
51.508428229,3018.0
51.525139498,3180.0
51.541850767,3244.0
51.558562036,3356.0
51.575273305,3459.0
51.591984574,3665.0
51.608695843,3808.0
51.625407112,3864.0
51.642118381,3910.0
51.658829650,4205.0
51.675540919,4155.0
51.692252188,4254.0
51.708963457,4292.0
51.725674726,4303.0
51.742385995,4449.0
51.759097264,4476.0
51.775808533,4219.0
51.792519802,4284.0
51.809231071,4189.0
51.825942340,4151.0
51.842653609,4024.0
51.859364878,3978.0
51.876076147,3816.0
51.892787416,3788.0
51.909498685,3648.0
51.926209954,3490.0
51.942921223,3174.0
51.959632492,3131.0
51.976343761,3064.0
51.993055030,2840.0
52.009766299,2854.0
52.026477567,2751.0
52.043188836,2649.0
52.059900105,2512.0
52.076611374,2413.0
52.093322643,2365.0
52.110033912,2319.0
52.126745181,2371.0
52.143456450,2195.0
52.160167719,2182.0
52.176878988,2196.0
52.193590257,2049.0
52.210301526,2140.0
52.227012795,2070.0
52.243724064,2120.0
52.260435333,2024.0
52.277146602,2019.0
52.293857871,1939.0
52.310569140,1973.0
52.327280409,1899.0
52.343991678,1913.0
52.360702947,2024.0
52.377414216,1981.0
52.394125485,2074.0
52.410836754,1903.0
52.427548023,1830.0
52.444259292,1900.0
52.460970561,1928.0
52.477681830,1893.0
52.494393099,1897.0
52.511104368,1897.0
52.527815637,1840.0
52.544526906,1933.0
52.561238175,1774.0
52.577949444,1864.0
52.594660713,1825.0
52.611371982,1862.0
52.628083251,1882.0
52.644794520,1943.0
52.661505789,1878.0
52.678217058,1868.0
52.694928327,1842.0
52.711639596,1850.0
52.728350865,1786.0
52.745062134,1852.0
52.761773403,1893.0
52.778484671,1842.0
52.795195940,1894.0
52.811907209,1888.0
52.828618478,1834.0
52.845329747,1896.0
52.862041016,1711.0
52.878752285,1827.0
52.895463554,1797.0
52.912174823,1879.0
52.928886092,1864.0
52.945597361,1822.0
52.962308630,1874.0
52.979019899,1836.0
52.995731168,1835.0
53.012442437,1830.0
53.029153706,1843.0
53.045864975,1822.0
53.062576244,1885.0
53.079287513,1857.0
53.095998782,1820.0
53.112710051,1741.0
53.129421320,1825.0
53.146132589,1798.0
53.162843858,1838.0
53.179555127,1763.0
53.196266396,1745.0
53.212977665,1815.0
53.229688934,1801.0
53.246400203,1766.0
53.263111472,1737.0
53.279822741,1806.0
53.296534010,1773.0
53.313245279,1857.0
53.329956548,1748.0
53.346667817,1745.0
53.363379086,1830.0
53.380090355,1811.0
53.396801624,1721.0
53.413512893,1737.0
53.430224162,1846.0
53.446935431,1793.0
53.463646700,1834.0
53.480357969,1801.0
53.497069238,1799.0
53.513780507,1846.0
53.530491776,1801.0
53.547203044,1751.0
53.563914313,1746.0
53.580625582,1744.0
53.597336851,1816.0
53.614048120,1752.0
53.630759389,1819.0
53.647470658,1845.0
53.664181927,1738.0
53.680893196,1779.0
53.697604465,1811.0
53.714315734,1826.0
53.731027003,1806.0
53.747738272,1699.0
53.764449541,1804.0
53.781160810,1834.0
53.797872079,1756.0
53.814583348,1805.0
53.831294617,1782.0
53.848005886,1769.0
53.864717155,1944.0
53.881428424,1782.0
53.898139693,1781.0
53.914850962,1734.0
53.931562231,1810.0
53.948273500,1785.0
53.964984769,1839.0
53.981696038,1798.0
53.998407307,1852.0
54.015118576,1789.0
54.031829845,1778.0
54.048541114,1804.0
54.065252383,1802.0
54.081963652,1718.0
54.098674921,1789.0
54.115386190,1691.0
54.132097459,1792.0
54.148808728,1743.0
54.165519997,1835.0
54.182231266,1757.0
54.198942535,1757.0
54.215653804,1792.0
54.232365073,1744.0
54.249076342,1783.0
54.265787611,1860.0
54.282498880,1790.0
54.299210148,1762.0
54.315921417,1853.0
54.332632686,1747.0
54.349343955,1822.0
54.366055224,1846.0
54.382766493,1803.0
54.399477762,1807.0
54.416189031,1757.0
54.432900300,1756.0
54.449611569,1736.0
54.466322838,1761.0
54.483034107,1751.0
54.499745376,1706.0
54.516456645,1719.0
54.533167914,1736.0
54.549879183,1752.0
54.566590452,1739.0
54.583301721,1693.0
54.600012990,1810.0
54.616724259,1804.0
54.633435528,1761.0
54.650146797,1789.0
54.666858066,1735.0
54.683569335,1771.0
54.700280604,1784.0
54.716991873,1803.0
54.733703142,1753.0
54.750414411,1750.0
54.767125680,1791.0
54.783836949,1742.0
54.800548218,1730.0
54.817259487,1746.0
54.833970756,1824.0
54.850682025,1776.0
54.867393294,1777.0
54.884104563,1730.0
54.900815832,1720.0
54.917527101,1764.0
54.934238370,1724.0
54.950949639,1756.0
54.967660908,1761.0
54.984372177,1726.0
55.001083446,1711.0
55.017794715,1691.0
55.034505984,1730.0
55.051217253,1749.0
55.067928521,1788.0
55.084639790,1847.0
55.101351059,1764.0
55.118062328,1759.0
55.134773597,1693.0
55.151484866,1823.0
55.168196135,1800.0
55.184907404,1840.0
55.201618673,1866.0
55.218329942,1690.0
55.235041211,1805.0
55.251752480,1803.0
55.268463749,1802.0
55.285175018,1809.0
55.301886287,1821.0
55.318597556,1731.0
55.335308825,1780.0
55.352020094,1805.0
55.368731363,1831.0
55.385442632,1799.0
55.402153901,1727.0
55.418865170,1717.0
55.435576439,1799.0
55.452287708,1756.0
55.468998977,1708.0
55.485710246,1711.0
55.502421515,1734.0
55.519132784,1700.0
55.535844053,1804.0
55.552555322,1772.0
55.569266591,1739.0
55.585977860,1673.0
55.602689129,1672.0
55.619400398,1662.0
55.636111667,1781.0
55.652822936,1663.0
55.669534205,1763.0
55.686245474,1775.0
55.702956743,1763.0
55.719668012,1726.0
55.736379281,1782.0
55.753090550,1707.0
55.769801819,1715.0
55.786513088,1686.0
55.803224357,1726.0
55.819935625,1734.0
55.836646894,1713.0
55.853358163,1740.0
55.870069432,1798.0
55.886780701,1741.0
55.903491970,1745.0
55.920203239,1777.0
55.936914508,1822.0
55.953625777,1746.0
55.970337046,1790.0
55.987048315,1759.0
56.003759584,1791.0
56.020470853,1802.0
56.037182122,1764.0
56.053893391,1810.0
56.070604660,1832.0
56.087315929,1783.0
56.104027198,1684.0
56.120738467,1755.0
56.137449736,1773.0
56.154161005,1710.0
56.170872274,1737.0
56.187583543,1697.0
56.204294812,1818.0
56.221006081,1771.0
56.237717350,1748.0
56.254428619,1661.0
56.271139888,1731.0
56.287851157,1762.0
56.304562426,1721.0
56.321273695,1724.0
56.337984964,1839.0
56.354696233,1826.0
56.371407502,1801.0
56.388118771,1709.0
56.404830040,1747.0
56.421541309,1712.0
56.438252578,1762.0
56.454963847,1717.0
56.471675116,1736.0
56.488386385,1752.0
56.505097654,1689.0
56.521808923,1716.0
56.538520192,1741.0
56.555231461,1662.0
56.571942730,1739.0
56.588653998,1738.0
56.605365267,1689.0
56.622076536,1751.0
56.638787805,1720.0
56.655499074,1762.0
56.672210343,1732.0
56.688921612,1764.0
56.705632881,1709.0
56.722344150,1662.0
56.739055419,1689.0
56.755766688,1827.0
56.772477957,1752.0
56.789189226,1773.0
56.805900495,1680.0
56.822611764,1723.0
56.839323033,1792.0
56.856034302,1702.0
56.872745571,1789.0
56.889456840,1743.0
56.906168109,1658.0
56.922879378,1667.0
56.939590647,1690.0
56.956301916,1804.0
56.973013185,1774.0
56.989724454,1717.0
57.006435723,1674.0
57.023146992,1773.0
57.039858261,1691.0
57.056569530,1785.0
57.073280799,1620.0
57.089992068,1734.0
57.106703337,1696.0
57.123414606,1700.0
57.140125875,1706.0
57.156837144,1793.0
57.173548413,1793.0
57.190259682,1787.0
57.206970951,1704.0
57.223682220,1696.0
57.240393489,1693.0
57.257104758,1747.0
57.273816027,1783.0
57.290527296,1706.0
57.307238565,1679.0
57.323949834,1749.0
57.340661102,1656.0
57.357372371,1749.0
57.374083640,1765.0
57.390794909,1759.0
57.407506178,1763.0
57.424217447,1723.0
57.440928716,1789.0
57.457639985,1764.0
57.474351254,1735.0
57.491062523,1700.0
57.507773792,1756.0
57.524485061,1689.0
57.541196330,1679.0
57.557907599,1679.0
57.574618868,1711.0
57.591330137,1676.0
57.608041406,1675.0
57.624752675,1697.0
57.641463944,1773.0
57.658175213,1793.0
57.674886482,1664.0
57.691597751,1751.0
57.708309020,1767.0
57.725020289,1690.0
57.741731558,1660.0
57.758442827,1708.0
57.775154096,1648.0
57.791865365,1713.0
57.808576634,1725.0
57.825287903,1714.0
57.841999172,1741.0
57.858710441,1766.0
57.875421710,1766.0
57.892132979,1783.0
57.908844248,1777.0
57.925555517,1753.0
57.942266786,1803.0
57.958978055,1739.0
57.975689324,1739.0
57.992400593,1706.0
58.009111862,1702.0
58.025823131,1659.0
58.042534400,1756.0
58.059245669,1675.0
58.075956938,1823.0
58.092668207,1704.0
58.109379475,1655.0
58.126090744,1696.0
58.142802013,1831.0
58.159513282,1786.0
58.176224551,1759.0
58.192935820,1725.0
58.209647089,1801.0
58.226358358,1794.0
58.243069627,1729.0
58.259780896,1743.0
58.276492165,1731.0
58.293203434,1663.0
58.309914703,1761.0
58.326625972,1790.0
58.343337241,1697.0
58.360048510,1786.0
58.376759779,1778.0
58.393471048,1877.0
58.410182317,1740.0
58.426893586,1729.0
58.443604855,1637.0
58.460316124,1719.0
58.477027393,1720.0
58.493738662,1690.0
58.510449931,1700.0
58.527161200,1712.0
58.543872469,1718.0
58.560583738,1664.0
58.577295007,1692.0
58.594006276,1703.0
58.610717545,1751.0
58.627428814,1789.0
58.644140083,1663.0
58.660851352,1701.0
58.677562621,1749.0
58.694273890,1743.0
58.710985159,1699.0
58.727696428,1748.0
58.744407697,1682.0
58.761118966,1735.0
58.777830235,1695.0
58.794541504,1687.0
58.811252773,1760.0
58.827964042,1722.0
58.844675311,1717.0
58.861386579,1691.0
58.878097848,1764.0
58.894809117,1714.0
58.911520386,1794.0
58.928231655,1770.0
58.944942924,1703.0
58.961654193,1754.0
58.978365462,1755.0
58.995076731,1710.0
59.011788000,1756.0
59.028499269,1650.0
59.045210538,1783.0
59.061921807,1726.0
59.078633076,1704.0
59.095344345,1803.0
59.112055614,1670.0
59.128766883,1744.0
59.145478152,1733.0
59.162189421,1691.0
59.178900690,1762.0
59.195611959,1784.0
59.212323228,1752.0
59.229034497,1735.0
59.245745766,1831.0
59.262457035,1761.0
59.279168304,1811.0
59.295879573,1708.0
59.312590842,1693.0
59.329302111,1658.0
59.346013380,1772.0
59.362724649,1624.0
59.379435918,1729.0
59.396147187,1734.0
59.412858456,1759.0
59.429569725,1813.0
59.446280994,1715.0
59.462992263,1779.0
59.479703532,1810.0
59.496414801,1759.0
59.513126070,1663.0
59.529837339,1703.0
59.546548608,1737.0
59.563259877,1749.0
59.579971146,1771.0
59.596682415,1837.0
59.613393684,1706.0
59.630104952,1684.0
59.646816221,1726.0
59.663527490,1758.0
59.680238759,1747.0
59.696950028,1765.0
59.713661297,1789.0
59.730372566,1696.0
59.747083835,1735.0
59.763795104,1633.0
59.780506373,1720.0
59.797217642,1749.0
59.813928911,1726.0
59.830640180,1722.0
59.847351449,1759.0
59.864062718,1678.0
59.880773987,1739.0
59.897485256,1766.0
59.914196525,1708.0
59.930907794,1724.0
59.947619063,1772.0
59.964330332,1755.0
59.981041601,1652.0
59.997752870,1748.0
60.014464139,1748.0
60.031175408,1711.0
60.047886677,1706.0
60.064597946,1693.0
60.081309215,1663.0
60.098020484,1831.0
60.114731753,1657.0
60.131443022,1755.0
60.148154291,1773.0
60.164865560,1671.0
60.181576829,1809.0
60.198288098,1645.0
60.214999367,1756.0
60.231710636,1701.0
60.248421905,1763.0
60.265133174,1764.0
60.281844443,1744.0
60.298555712,1667.0
60.315266981,1731.0
60.331978250,1718.0
60.348689519,1729.0
60.365400788,1752.0
60.382112056,1724.0
60.398823325,1721.0
60.415534594,1771.0
60.432245863,1768.0
60.448957132,1771.0
60.465668401,1765.0
60.482379670,1717.0
60.499090939,1722.0
60.515802208,1767.0
60.532513477,1764.0
60.549224746,1698.0
60.565936015,1762.0
60.582647284,1779.0
60.599358553,1854.0
60.616069822,1733.0
60.632781091,1806.0
60.649492360,1710.0
60.666203629,1784.0
60.682914898,1708.0
60.699626167,1697.0
60.716337436,1746.0
60.733048705,1750.0
60.749759974,1799.0
60.766471243,1789.0
60.783182512,1655.0
60.799893781,1687.0
60.816605050,1725.0
60.833316319,1726.0
60.850027588,1742.0
60.866738857,1770.0
60.883450126,1760.0
60.900161395,1713.0
60.916872664,1729.0
60.933583933,1720.0
60.950295202,1672.0
60.967006471,1775.0
60.983717740,1683.0
61.000429009,1807.0
61.017140278,1727.0
61.033851547,1751.0
61.050562816,1730.0
61.067274085,1702.0
61.083985354,1717.0
61.100696623,1813.0
61.117407892,1746.0
61.134119161,1761.0
61.150830429,1718.0
61.167541698,1701.0
61.184252967,1849.0
61.200964236,1669.0
61.217675505,1756.0
61.234386774,1784.0
61.251098043,1695.0
61.267809312,1762.0
61.284520581,1820.0
61.301231850,1810.0
61.317943119,1745.0
61.334654388,1734.0
61.351365657,1735.0
61.368076926,1760.0
61.384788195,1769.0
61.401499464,1719.0
61.418210733,1692.0
61.434922002,1728.0
61.451633271,1758.0
61.468344540,1746.0
61.485055809,1743.0
61.501767078,1804.0
61.518478347,1739.0
61.535189616,1741.0
61.551900885,1741.0
61.568612154,1782.0
61.585323423,1728.0
61.602034692,1682.0
61.618745961,1802.0
61.635457230,1664.0
61.652168499,1755.0
61.668879768,1748.0
61.685591037,1784.0
61.702302306,1818.0
61.719013575,1721.0
61.735724844,1742.0
61.752436113,1772.0
61.769147382,1748.0
61.785858651,1802.0
61.802569920,1734.0
61.819281189,1788.0
61.835992458,1837.0
61.852703727,1666.0
61.869414996,1806.0
61.886126265,1685.0
61.902837533,1753.0
61.919548802,1755.0
61.936260071,1833.0
61.952971340,1845.0
61.969682609,1756.0
61.986393878,1792.0
62.003105147,1751.0
62.019816416,1708.0
62.036527685,1732.0
62.053238954,1686.0
62.069950223,1800.0
62.086661492,1762.0
62.103372761,1732.0
62.120084030,1794.0
62.136795299,1788.0
62.153506568,1746.0
62.170217837,1826.0
62.186929106,1714.0
62.203640375,1772.0
62.220351644,1669.0
62.237062913,1792.0
62.253774182,1780.0
62.270485451,1776.0
62.287196720,1779.0
62.303907989,1719.0
62.320619258,1753.0
62.337330527,1782.0
62.354041796,1841.0
62.370753065,1779.0
62.387464334,1790.0
62.404175603,1817.0
62.420886872,1806.0
62.437598141,1711.0
62.454309410,1819.0
62.471020679,1793.0
62.487731948,1808.0
62.504443217,1723.0
62.521154486,1728.0
62.537865755,1774.0
62.554577024,1737.0
62.571288293,1732.0
62.587999562,1764.0
62.604710831,1740.0
62.621422100,1779.0
62.638133369,1832.0
62.654844638,1761.0
62.671555906,1777.0
62.688267175,1735.0
62.704978444,1776.0
62.721689713,1831.0
62.738400982,1738.0
62.755112251,1852.0
62.771823520,1815.0
62.788534789,1757.0
62.805246058,1763.0
62.821957327,1750.0
62.838668596,1820.0
62.855379865,1767.0
62.872091134,1832.0
62.888802403,1801.0
62.905513672,1834.0
62.922224941,1782.0
62.938936210,1839.0
62.955647479,1757.0
62.972358748,1791.0
62.989070017,1759.0
63.005781286,1787.0
63.022492555,1838.0
63.039203824,1621.0
63.055915093,1776.0
63.072626362,1738.0
63.089337631,1705.0
63.106048900,1879.0
63.122760169,1757.0
63.139471438,1796.0
63.156182707,1820.0
63.172893976,1701.0
63.189605245,1739.0
63.206316514,1775.0
63.223027783,1773.0
63.239739052,1818.0
63.256450321,1778.0
63.273161590,1855.0
63.289872859,1734.0
63.306584128,1758.0
63.323295397,1813.0
63.340006666,1800.0
63.356717935,1725.0
63.373429204,1777.0
63.390140473,1776.0
63.406851742,1789.0
63.423563010,1823.0
63.440274279,1825.0
63.456985548,1794.0
63.473696817,1854.0
63.490408086,1794.0
63.507119355,1784.0
63.523830624,1782.0
63.540541893,1916.0
63.557253162,1807.0
63.573964431,1717.0
63.590675700,1775.0
63.607386969,1841.0
63.624098238,1884.0
63.640809507,1833.0
63.657520776,1822.0
63.674232045,1754.0
63.690943314,1817.0
63.707654583,1768.0
63.724365852,1757.0
63.741077121,1768.0
63.757788390,1826.0
63.774499659,1794.0
63.791210928,1760.0
63.807922197,1772.0
63.824633466,1792.0
63.841344735,1827.0
63.858056004,1828.0
63.874767273,1805.0
63.891478542,1748.0
63.908189811,1773.0
63.924901080,1827.0
63.941612349,1794.0
63.958323618,1756.0
63.975034887,1765.0
63.991746156,1826.0
64.008457425,1870.0
64.025168694,1674.0
64.041879963,1855.0
64.058591232,1737.0
64.075302501,1793.0
64.092013770,1761.0
64.108725039,1828.0
64.125436308,1738.0
64.142147577,1724.0
64.158858846,1794.0
64.175570115,1785.0
64.192281383,1789.0
64.208992652,1799.0
64.225703921,1827.0
64.242415190,1789.0
64.259126459,1839.0
64.275837728,1882.0
64.292548997,1787.0
64.309260266,1851.0
64.325971535,1730.0
64.342682804,1788.0
64.359394073,1873.0
64.376105342,1751.0
64.392816611,1792.0
64.409527880,1862.0
64.426239149,1778.0
64.442950418,1793.0
64.459661687,1858.0
64.476372956,1870.0
64.493084225,1780.0
64.509795494,1888.0
64.526506763,1806.0
64.543218032,1851.0
64.559929301,1827.0
64.576640570,1838.0
64.593351839,1773.0
64.610063108,1789.0
64.626774377,1827.0
64.643485646,1868.0
64.660196915,1872.0
64.676908184,1849.0
64.693619453,1845.0
64.710330722,1852.0
64.727041991,1782.0
64.743753260,1827.0
64.760464529,1733.0
64.777175798,1776.0
64.793887067,1786.0
64.810598336,1789.0
64.827309605,1778.0
64.844020874,1874.0
64.860732143,1885.0
64.877443412,1822.0
64.894154681,1821.0
64.910865950,1824.0
64.927577219,1870.0
64.944288487,1800.0
64.960999756,1818.0
64.977711025,1809.0
64.994422294,1835.0
65.011133563,1808.0
65.027844832,1825.0
65.044556101,1824.0
65.061267370,1852.0
65.077978639,1847.0
65.094689908,1930.0
65.111401177,1805.0
65.128112446,1855.0
65.144823715,1848.0
65.161534984,1803.0
65.178246253,1764.0
65.194957522,1825.0
65.211668791,1813.0
65.228380060,1909.0
65.245091329,1752.0
65.261802598,1823.0
65.278513867,1797.0
65.295225136,1893.0
65.311936405,1869.0
65.328647674,1862.0
65.345358943,1794.0
65.362070212,1850.0
65.378781481,1908.0
65.395492750,1804.0
65.412204019,1796.0
65.428915288,1875.0
65.445626557,1903.0
65.462337826,1887.0
65.479049095,1871.0
65.495760364,1862.0
65.512471633,1820.0
65.529182902,1885.0
65.545894171,1809.0
65.562605440,1859.0
65.579316709,1804.0
65.596027978,1800.0
65.612739247,1895.0
65.629450516,1902.0
65.646161785,1843.0
65.662873054,1808.0
65.679584323,1846.0
65.696295592,1891.0
65.713006860,1861.0
65.729718129,1822.0
65.746429398,1749.0
65.763140667,1813.0
65.779851936,1915.0
65.796563205,1860.0
65.813274474,1862.0
65.829985743,1848.0
65.846697012,1819.0
65.863408281,1834.0
65.880119550,1826.0
65.896830819,1820.0
65.913542088,1881.0
65.930253357,1799.0
65.946964626,1821.0
65.963675895,1762.0
65.980387164,1783.0
65.997098433,1749.0
66.013809702,1853.0
66.030520971,1848.0
66.047232240,1888.0
66.063943509,1827.0
66.080654778,1819.0
66.097366047,1855.0
66.114077316,1891.0
66.130788585,1858.0
66.147499854,1834.0
66.164211123,1874.0
66.180922392,1902.0
66.197633661,1847.0
66.214344930,1913.0
66.231056199,1850.0
66.247767468,1800.0
66.264478737,1952.0
66.281190006,1748.0
66.297901275,1822.0
66.314612544,1822.0
66.331323813,1845.0
66.348035082,1917.0
66.364746351,1866.0
66.381457620,1845.0
66.398168889,1872.0
66.414880158,1823.0
66.431591427,1863.0
66.448302696,1870.0
66.465013964,1798.0
66.481725233,1851.0
66.498436502,1874.0
66.515147771,1838.0
66.531859040,1860.0
66.548570309,1818.0
66.565281578,1824.0
66.581992847,1933.0
66.598704116,1919.0
66.615415385,1867.0
66.632126654,1916.0
66.648837923,1811.0
66.665549192,1803.0
66.682260461,1814.0
66.698971730,1838.0
66.715682999,1786.0
66.732394268,1806.0
66.749105537,1828.0
66.765816806,1828.0
66.782528075,1852.0
66.799239344,1902.0
66.815950613,1825.0
66.832661882,1863.0
66.849373151,1835.0
66.866084420,1880.0
66.882795689,1849.0
66.899506958,1964.0
66.916218227,1866.0
66.932929496,1812.0
66.949640765,1749.0
66.966352034,1866.0
66.983063303,1832.0
66.999774572,1874.0
67.016485841,1920.0
67.033197110,1865.0
67.049908379,1813.0
67.066619648,1918.0
67.083330917,1852.0
67.100042186,1892.0
67.116753455,1760.0
67.133464724,1916.0
67.150175993,1857.0
67.166887262,1764.0
67.183598531,1870.0
67.200309800,1897.0
67.217021069,1845.0
67.233732337,1872.0
67.250443606,1910.0
67.267154875,1842.0
67.283866144,1894.0
67.300577413,1712.0
67.317288682,1845.0
67.333999951,1797.0
67.350711220,1831.0
67.367422489,1833.0
67.384133758,1852.0
67.400845027,1786.0
67.417556296,1849.0
67.434267565,1820.0
67.450978834,1814.0
67.467690103,1846.0
67.484401372,1878.0
67.501112641,1825.0
67.517823910,1909.0
67.534535179,1806.0
67.551246448,1870.0
67.567957717,1835.0
67.584668986,1868.0
67.601380255,1895.0
67.618091524,1841.0
67.634802793,1851.0
67.651514062,1817.0
67.668225331,1858.0
67.684936600,1807.0
67.701647869,1810.0
67.718359138,1904.0
67.735070407,1808.0
67.751781676,1895.0
67.768492945,1799.0
67.785204214,1837.0
67.801915483,1852.0
67.818626752,1804.0
67.835338021,1833.0
67.852049290,1923.0
67.868760559,1840.0
67.885471828,1848.0
67.902183097,1870.0
67.918894366,1846.0
67.935605635,1777.0
67.952316904,1858.0
67.969028173,1788.0
67.985739441,1829.0
68.002450710,1792.0
68.019161979,1848.0
68.035873248,1919.0
68.052584517,1805.0
68.069295786,1842.0
68.086007055,1780.0
68.102718324,1885.0
68.119429593,1830.0
68.136140862,1780.0
68.152852131,1865.0
68.169563400,1854.0
68.186274669,1819.0
68.202985938,1886.0
68.219697207,1866.0
68.236408476,1839.0
68.253119745,1758.0
68.269831014,1829.0
68.286542283,1863.0
68.303253552,1783.0
68.319964821,1899.0
68.336676090,1854.0
68.353387359,1779.0
68.370098628,1802.0
68.386809897,1772.0
68.403521166,1912.0
68.420232435,1796.0
68.436943704,1838.0
68.453654973,1839.0
68.470366242,1769.0
68.487077511,1857.0
68.503788780,1821.0
68.520500049,1734.0
68.537211318,1764.0
68.553922587,1825.0
68.570633856,1754.0
68.587345125,1844.0
68.604056394,1885.0
68.620767663,1766.0
68.637478932,1753.0
68.654190201,1849.0
68.670901470,1798.0
68.687612739,1745.0
68.704324008,1801.0
68.721035277,1798.0
68.737746546,1862.0
68.754457814,1860.0
68.771169083,1851.0
68.787880352,1811.0
68.804591621,1901.0
68.821302890,1832.0
68.838014159,1891.0
68.854725428,1806.0
68.871436697,1827.0
68.888147966,1813.0
68.904859235,1856.0
68.921570504,1830.0
68.938281773,1783.0
68.954993042,1783.0
68.971704311,1911.0
68.988415580,1837.0
69.005126849,1800.0
69.021838118,1883.0
69.038549387,1801.0
69.055260656,1772.0
69.071971925,1838.0
69.088683194,1807.0
69.105394463,1897.0
69.122105732,1762.0
69.138817001,1831.0
69.155528270,1762.0
69.172239539,1880.0
69.188950808,1725.0
69.205662077,1832.0
69.222373346,1841.0
69.239084615,1826.0
69.255795884,1829.0
69.272507153,1844.0
69.289218422,1798.0
69.305929691,1834.0
69.322640960,1802.0
69.339352229,1775.0
69.356063498,1854.0
69.372774767,1815.0
69.389486036,1784.0
69.406197305,1821.0
69.422908574,1721.0
69.439619843,1818.0
69.456331112,1787.0
69.473042381,1732.0
69.489753650,1840.0
69.506464919,1869.0
69.523176187,1841.0
69.539887456,1830.0
69.556598725,1820.0
69.573309994,1924.0
69.590021263,1814.0
69.606732532,1743.0
69.623443801,1740.0
69.640155070,1816.0
69.656866339,1754.0
69.673577608,1856.0
69.690288877,1853.0
69.707000146,1764.0
69.723711415,1787.0
69.740422684,1849.0
69.757133953,1822.0
69.773845222,1769.0
69.790556491,1760.0
69.807267760,1811.0
69.823979029,1827.0
69.840690298,1817.0
69.857401567,1850.0
69.874112836,1840.0
69.890824105,1826.0
69.907535374,1757.0
69.924246643,1830.0
69.940957912,1716.0
69.957669181,1796.0
69.974380450,1798.0
69.991091719,1743.0
70.007802988,1793.0
70.024514257,1800.0
70.041225526,1789.0
70.057936795,1775.0
70.074648064,1799.0
70.091359333,1816.0
70.108070602,1781.0
70.124781871,1859.0
70.141493140,1819.0
70.158204409,1801.0
70.174915678,1768.0
70.191626947,1777.0
70.208338216,1812.0
70.225049485,1790.0
70.241760754,1778.0
70.258472023,1746.0
70.275183291,1766.0
70.291894560,1793.0
70.308605829,1754.0
70.325317098,1838.0
70.342028367,1788.0
70.358739636,1829.0
70.375450905,1835.0
70.392162174,1748.0
70.408873443,1856.0
70.425584712,1751.0
70.442295981,1762.0
70.459007250,1794.0
70.475718519,1837.0
70.492429788,1726.0
70.509141057,1815.0
70.525852326,1784.0
70.542563595,1811.0
70.559274864,1835.0
70.575986133,1659.0
70.592697402,1693.0
70.609408671,1774.0
70.626119940,1714.0
70.642831209,1826.0
70.659542478,1843.0
70.676253747,1798.0
70.692965016,1748.0
70.709676285,1723.0
70.726387554,1826.0
70.743098823,1813.0
70.759810092,1724.0
70.776521361,1685.0
70.793232630,1743.0
70.809943899,1817.0
70.826655168,1799.0
70.843366437,1806.0
70.860077706,1806.0
70.876788975,1709.0
70.893500244,1780.0
70.910211513,1776.0
70.926922782,1746.0
70.943634051,1745.0
70.960345320,1765.0
70.977056589,1755.0
70.993767858,1748.0
71.010479127,1789.0
71.027190396,1817.0
71.043901664,1803.0
71.060612933,1746.0
71.077324202,1854.0
71.094035471,1766.0
71.110746740,1720.0
71.127458009,1739.0
71.144169278,1783.0
71.160880547,1759.0
71.177591816,1775.0
71.194303085,1718.0
71.211014354,1800.0
71.227725623,1769.0
71.244436892,1722.0
71.261148161,1805.0
71.277859430,1826.0
71.294570699,1773.0
71.311281968,1779.0
71.327993237,1784.0
71.344704506,1774.0
71.361415775,1776.0
71.378127044,1731.0
71.394838313,1799.0
71.411549582,1793.0
71.428260851,1766.0
71.444972120,1755.0
71.461683389,1761.0
71.478394658,1768.0
71.495105927,1754.0
71.511817196,1704.0
71.528528465,1684.0
71.545239734,1749.0
71.561951003,1733.0
71.578662272,1747.0
71.595373541,1790.0
71.612084810,1779.0
71.628796079,1791.0
71.645507348,1678.0
71.662218617,1754.0
71.678929886,1785.0
71.695641155,1713.0
71.712352424,1754.0
71.729063693,1798.0
71.745774962,1681.0
71.762486231,1703.0
71.779197500,1821.0
71.795908768,1666.0
71.812620037,1706.0
71.829331306,1787.0
71.846042575,1776.0
71.862753844,1730.0
71.879465113,1744.0
71.896176382,1712.0
71.912887651,1786.0
71.929598920,1763.0
71.946310189,1682.0
71.963021458,1703.0
71.979732727,1682.0
71.996443996,1745.0
72.013155265,1807.0
72.029866534,1742.0
72.046577803,1709.0
72.063289072,1667.0
72.080000341,1677.0
72.096711610,1813.0
72.113422879,1720.0
72.130134148,1676.0
72.146845417,1807.0
72.163556686,1697.0
72.180267955,1743.0
72.196979224,1708.0
72.213690493,1802.0
72.230401762,1673.0
72.247113031,1752.0
72.263824300,1714.0
72.280535569,1791.0
72.297246838,1713.0
72.313958107,1724.0
72.330669376,1718.0
72.347380645,1765.0
72.364091914,1752.0
72.380803183,1735.0
72.397514452,1696.0
72.414225721,1691.0
72.430936990,1665.0
72.447648259,1722.0
72.464359528,1752.0
72.481070797,1701.0
72.497782066,1686.0
72.514493335,1724.0
72.531204604,1768.0
72.547915873,1640.0
72.564627141,1665.0
72.581338410,1751.0
72.598049679,1718.0
72.614760948,1732.0
72.631472217,1676.0
72.648183486,1716.0
72.664894755,1760.0
72.681606024,1691.0
72.698317293,1698.0
72.715028562,1750.0
72.731739831,1687.0
72.748451100,1773.0
72.765162369,1751.0
72.781873638,1746.0
72.798584907,1604.0
72.815296176,1653.0
72.832007445,1680.0
72.848718714,1526.0
72.865429983,1716.0
72.882141252,1701.0
72.898852521,1717.0
72.915563790,1761.0
72.932275059,1666.0
72.948986328,1758.0
72.965697597,1613.0
72.982408866,1731.0
72.999120135,1743.0
73.015831404,1671.0
73.032542673,1672.0
73.049253942,1712.0
73.065965211,1670.0
73.082676480,1710.0
73.099387749,1781.0
73.116099018,1686.0
73.132810287,1744.0
73.149521556,1744.0
73.166232825,1672.0
73.182944094,1632.0
73.199655363,1707.0
73.216366632,1681.0
73.233077901,1739.0
73.249789170,1638.0
73.266500439,1683.0
73.283211708,1715.0
73.299922977,1774.0
73.316634245,1689.0
73.333345514,1654.0
73.350056783,1745.0
73.366768052,1742.0
73.383479321,1771.0
73.400190590,1699.0
73.416901859,1701.0
73.433613128,1707.0
73.450324397,1646.0
73.467035666,1643.0
73.483746935,1671.0
73.500458204,1629.0
73.517169473,1688.0
73.533880742,1720.0
73.550592011,1679.0
73.567303280,1712.0
73.584014549,1608.0
73.600725818,1677.0
73.617437087,1650.0
73.634148356,1684.0
73.650859625,1724.0
73.667570894,1667.0
73.684282163,1645.0
73.700993432,1676.0
73.717704701,1650.0
73.734415970,1622.0
73.751127239,1606.0
73.767838508,1733.0
73.784549777,1666.0
73.801261046,1661.0
73.817972315,1704.0
73.834683584,1737.0
73.851394853,1686.0
73.868106122,1638.0
73.884817391,1707.0
73.901528660,1719.0
73.918239929,1701.0
73.934951198,1609.0
73.951662467,1704.0
73.968373736,1689.0
73.985085005,1695.0
74.001796274,1642.0
74.018507543,1722.0
74.035218812,1672.0
74.051930081,1650.0
74.068641350,1634.0
74.085352618,1624.0
74.102063887,1612.0
74.118775156,1721.0
74.135486425,1671.0
74.152197694,1736.0
74.168908963,1693.0
74.185620232,1700.0
74.202331501,1657.0
74.219042770,1689.0
74.235754039,1685.0
74.252465308,1731.0
74.269176577,1716.0
74.285887846,1671.0
74.302599115,1686.0
74.319310384,1659.0
74.336021653,1643.0
74.352732922,1704.0
74.369444191,1676.0
74.386155460,1650.0
74.402866729,1656.0
74.419577998,1684.0
74.436289267,1659.0
74.453000536,1594.0
74.469711805,1690.0
74.486423074,1716.0
74.503134343,1647.0
74.519845612,1655.0
74.536556881,1661.0
74.553268150,1585.0
74.569979419,1655.0
74.586690688,1646.0
74.603401957,1660.0
74.620113226,1615.0
74.636824495,1680.0
74.653535764,1658.0
74.670247033,1674.0
74.686958302,1699.0
74.703669571,1639.0
74.720380840,1663.0
74.737092109,1629.0
74.753803378,1643.0
74.770514647,1679.0
74.787225916,1630.0
74.803937185,1604.0
74.820648454,1598.0
74.837359722,1632.0
74.854070991,1640.0
74.870782260,1632.0
74.887493529,1681.0
74.904204798,1653.0
74.920916067,1641.0
74.937627336,1684.0
74.954338605,1705.0
74.971049874,1687.0
74.987761143,1680.0
75.004472412,1660.0
75.021183681,1713.0
75.037894950,1691.0
75.054606219,1749.0
75.071317488,1665.0
75.088028757,1749.0
75.104740026,1691.0
75.121451295,1688.0
75.138162564,1666.0
75.154873833,1663.0
75.171585102,1690.0
75.188296371,1659.0
75.205007640,1688.0
75.221718909,1616.0
75.238430178,1716.0
75.255141447,1687.0
75.271852716,1723.0
75.288563985,1673.0
75.305275254,1798.0
75.321986523,1729.0
75.338697792,1666.0
75.355409061,1626.0
75.372120330,1676.0
75.388831599,1695.0
75.405542868,1781.0
75.422254137,1661.0
75.438965406,1741.0
75.455676675,1763.0
75.472387944,1768.0
75.489099213,1708.0
75.505810482,1665.0
75.522521751,1730.0
75.539233020,1715.0
75.555944289,1658.0
75.572655558,1775.0
75.589366827,1781.0
75.606078095,1769.0
75.622789364,1735.0
75.639500633,1731.0
75.656211902,1799.0
75.672923171,1760.0
75.689634440,1776.0
75.706345709,1779.0
75.723056978,1807.0
75.739768247,1831.0
75.756479516,1813.0
75.773190785,1826.0
75.789902054,1768.0
75.806613323,1750.0
75.823324592,1795.0
75.840035861,1862.0
75.856747130,1934.0
75.873458399,1853.0
75.890169668,1856.0
75.906880937,1929.0
75.923592206,1914.0
75.940303475,1879.0
75.957014744,1975.0
75.973726013,1897.0
75.990437282,1949.0
76.007148551,1993.0
76.023859820,2024.0
76.040571089,1964.0
76.057282358,2057.0
76.073993627,2014.0
76.090704896,2171.0
76.107416165,2161.0
76.124127434,2132.0
76.140838703,2079.0
76.157549972,2118.0
76.174261241,2215.0
76.190972510,2218.0
76.207683779,2138.0
76.224395048,2220.0
76.241106317,2320.0
76.257817586,2263.0
76.274528855,2240.0
76.291240124,2279.0
76.307951393,2131.0
76.324662662,2122.0
76.341373931,2126.0
76.358085199,2137.0
76.374796468,2107.0
76.391507737,2153.0
76.408219006,2107.0
76.424930275,1983.0
76.441641544,2058.0
76.458352813,2037.0
76.475064082,1984.0
76.491775351,1894.0
76.508486620,1986.0
76.525197889,1845.0
76.541909158,1890.0
76.558620427,1786.0
76.575331696,1880.0
76.592042965,1832.0
76.608754234,1802.0
76.625465503,1809.0
76.642176772,1719.0
76.658888041,1802.0
76.675599310,1734.0
76.692310579,1682.0
76.709021848,1618.0
76.725733117,1659.0
76.742444386,1617.0
76.759155655,1596.0
76.775866924,1563.0
76.792578193,1661.0
76.809289462,1669.0
76.826000731,1620.0
76.842712000,1566.0
76.859423269,1618.0
76.876134538,1659.0
76.892845807,1608.0
76.909557076,1632.0
76.926268345,1588.0
76.942979614,1617.0
76.959690883,1625.0
76.976402152,1613.0
76.993113421,1649.0
77.009824690,1603.0
77.026535959,1555.0
77.043247228,1625.0
77.059958497,1573.0
77.076669766,1597.0
77.093381035,1584.0
77.110092304,1614.0
77.126803572,1638.0
77.143514841,1527.0
77.160226110,1545.0
77.176937379,1611.0
77.193648648,1505.0
77.210359917,1592.0
77.227071186,1588.0
77.243782455,1568.0
77.260493724,1448.0
77.277204993,1534.0
77.293916262,1518.0
77.310627531,1555.0
77.327338800,1646.0
77.344050069,1572.0
77.360761338,1568.0
77.377472607,1587.0
77.394183876,1568.0
77.410895145,1497.0
77.427606414,1545.0
77.444317683,1510.0
77.461028952,1523.0
77.477740221,1528.0
77.494451490,1507.0
77.511162759,1505.0
77.527874028,1622.0
77.544585297,1560.0
77.561296566,1517.0
77.578007835,1645.0
77.594719104,1630.0
77.611430373,1553.0
77.628141642,1529.0
77.644852911,1544.0
77.661564180,1544.0
77.678275449,1473.0
77.694986718,1491.0
77.711697987,1617.0
77.728409256,1539.0
77.745120525,1556.0
77.761831794,1487.0
77.778543063,1548.0
77.795254332,1591.0
77.811965601,1492.0
77.828676870,1515.0
77.845388139,1516.0
77.862099408,1602.0
77.878810676,1499.0
77.895521945,1544.0
77.912233214,1427.0
77.928944483,1482.0
77.945655752,1539.0
77.962367021,1532.0
77.979078290,1495.0
77.995789559,1507.0
78.012500828,1466.0
78.029212097,1501.0
78.045923366,1519.0
78.062634635,1583.0
78.079345904,1503.0
78.096057173,1538.0
78.112768442,1454.0
78.129479711,1523.0
78.146190980,1490.0
78.162902249,1513.0
78.179613518,1524.0
78.196324787,1554.0
78.213036056,1604.0
78.229747325,1478.0
78.246458594,1525.0
78.263169863,1530.0
78.279881132,1505.0
78.296592401,1457.0
78.313303670,1487.0
78.330014939,1468.0
78.346726208,1480.0
78.363437477,1460.0
78.380148746,1480.0
78.396860015,1543.0
78.413571284,1455.0
78.430282553,1491.0
78.446993822,1536.0
78.463705091,1546.0
78.480416360,1573.0
78.497127629,1490.0
78.513838898,1472.0
78.530550167,1488.0
78.547261436,1493.0
78.563972705,1524.0
78.580683974,1406.0
78.597395243,1423.0
78.614106512,1461.0
78.630817781,1509.0
78.647529049,1493.0
78.664240318,1534.0
78.680951587,1497.0
78.697662856,1490.0
78.714374125,1414.0
78.731085394,1527.0
78.747796663,1473.0
78.764507932,1528.0
78.781219201,1528.0
78.797930470,1488.0
78.814641739,1536.0
78.831353008,1486.0
78.848064277,1499.0
78.864775546,1543.0
78.881486815,1483.0
78.898198084,1430.0
78.914909353,1418.0
78.931620622,1466.0
78.948331891,1447.0
78.965043160,1456.0
78.981754429,1511.0
78.998465698,1506.0
79.015176967,1495.0
79.031888236,1497.0
79.048599505,1475.0
79.065310774,1479.0
79.082022043,1413.0
79.098733312,1486.0
79.115444581,1478.0
79.132155850,1426.0
79.148867119,1460.0
79.165578388,1504.0
79.182289657,1480.0
79.199000926,1509.0
79.215712195,1546.0
79.232423464,1497.0
79.249134733,1540.0
79.265846002,1459.0
79.282557271,1455.0
79.299268540,1459.0
79.315979809,1445.0
79.332691078,1483.0
79.349402347,1462.0
79.366113616,1526.0
79.382824885,1426.0
79.399536153,1497.0
79.416247422,1482.0
79.432958691,1515.0
79.449669960,1498.0
79.466381229,1474.0
79.483092498,1465.0
79.499803767,1507.0
79.516515036,1466.0
79.533226305,1441.0
79.549937574,1502.0
79.566648843,1512.0
79.583360112,1491.0
79.600071381,1424.0
79.616782650,1470.0
79.633493919,1519.0
79.650205188,1418.0
79.666916457,1435.0
79.683627726,1511.0
79.700338995,1506.0
79.717050264,1477.0
79.733761533,1495.0
79.750472802,1412.0
79.767184071,1500.0
79.783895340,1405.0
79.800606609,1489.0
79.817317878,1420.0
79.834029147,1453.0
79.850740416,1514.0
79.867451685,1515.0
79.884162954,1489.0
79.900874223,1450.0
79.917585492,1456.0
79.934296761,1403.0
79.951008030,1432.0
79.967719299,1485.0
79.984430568,1428.0
80.001141837,1433.0
80.017853106,1420.0
80.034564375,1409.0
80.051275644,1413.0
80.067986913,1467.0
80.084698182,1516.0
80.101409451,1448.0
80.118120720,1475.0
80.134831989,1492.0
80.151543258,1463.0
80.168254526,1486.0
80.184965795,1399.0
80.201677064,1471.0
80.218388333,1450.0
80.235099602,1471.0
80.251810871,1534.0
80.268522140,1464.0
80.285233409,1462.0
80.301944678,1497.0
80.318655947,1406.0
80.335367216,1499.0
80.352078485,1483.0
80.368789754,1416.0
80.385501023,1383.0
80.402212292,1472.0
80.418923561,1510.0
80.435634830,1436.0
80.452346099,1529.0
80.469057368,1437.0
80.485768637,1490.0
80.502479906,1493.0
80.519191175,1441.0
80.535902444,1405.0
80.552613713,1475.0
80.569324982,1458.0
80.586036251,1465.0
80.602747520,1456.0
80.619458789,1406.0
80.636170058,1466.0
80.652881327,1415.0
80.669592596,1441.0
80.686303865,1382.0
80.703015134,1428.0
80.719726403,1484.0
80.736437672,1341.0
80.753148941,1437.0
80.769860210,1422.0
80.786571479,1415.0
80.803282748,1418.0
80.819994017,1353.0
80.836705286,1442.0
80.853416555,1471.0
80.870127824,1424.0
80.886839093,1483.0
80.903550362,1375.0
80.920261630,1473.0
80.936972899,1481.0
80.953684168,1387.0
80.970395437,1397.0
80.987106706,1433.0
81.003817975,1421.0
81.020529244,1443.0
81.037240513,1457.0
81.053951782,1367.0
81.070663051,1408.0
81.087374320,1453.0
81.104085589,1501.0
81.120796858,1439.0
81.137508127,1432.0
81.154219396,1484.0
81.170930665,1469.0
81.187641934,1450.0
81.204353203,1456.0
81.221064472,1421.0
81.237775741,1409.0
81.254487010,1435.0
81.271198279,1403.0
81.287909548,1421.0
81.304620817,1501.0
81.321332086,1406.0
81.338043355,1401.0
81.354754624,1427.0
81.371465893,1462.0
81.388177162,1434.0
81.404888431,1381.0
81.421599700,1520.0
81.438310969,1386.0
81.455022238,1388.0
81.471733507,1470.0
81.488444776,1415.0
81.505156045,1434.0
81.521867314,1380.0
81.538578583,1427.0
81.555289852,1441.0
81.572001121,1438.0
81.588712390,1430.0
81.605423659,1482.0
81.622134928,1416.0
81.638846197,1419.0
81.655557466,1475.0
81.672268735,1454.0
81.688980003,1409.0
81.705691272,1464.0
81.722402541,1455.0
81.739113810,1494.0
81.755825079,1422.0
81.772536348,1488.0
81.789247617,1378.0
81.805958886,1457.0
81.822670155,1380.0
81.839381424,1383.0
81.856092693,1344.0
81.872803962,1406.0
81.889515231,1438.0
81.906226500,1474.0
81.922937769,1401.0
81.939649038,1396.0
81.956360307,1419.0
81.973071576,1408.0
81.989782845,1420.0
82.006494114,1425.0
82.023205383,1396.0
82.039916652,1351.0
82.056627921,1402.0
82.073339190,1368.0
82.090050459,1358.0
82.106761728,1499.0
82.123472997,1415.0
82.140184266,1410.0
82.156895535,1364.0
82.173606804,1360.0
82.190318073,1416.0
82.207029342,1385.0
82.223740611,1403.0
82.240451880,1389.0
82.257163149,1427.0
82.273874418,1366.0
82.290585687,1401.0
82.307296956,1441.0
82.324008225,1414.0
82.340719494,1390.0
82.357430763,1430.0
82.374142032,1474.0
82.390853301,1373.0
82.407564570,1449.0
82.424275839,1446.0
82.440987107,1437.0
82.457698376,1439.0
82.474409645,1472.0
82.491120914,1371.0
82.507832183,1408.0
82.524543452,1381.0
82.541254721,1379.0
82.557965990,1356.0
82.574677259,1366.0
82.591388528,1473.0
82.608099797,1413.0
82.624811066,1385.0
82.641522335,1430.0
82.658233604,1415.0
82.674944873,1390.0
82.691656142,1400.0
82.708367411,1374.0
82.725078680,1387.0
82.741789949,1338.0
82.758501218,1435.0
82.775212487,1421.0
82.791923756,1465.0
82.808635025,1346.0
82.825346294,1390.0
82.842057563,1444.0
82.858768832,1412.0
82.875480101,1374.0
82.892191370,1447.0
82.908902639,1455.0
82.925613908,1483.0
82.942325177,1423.0
82.959036446,1345.0
82.975747715,1411.0
82.992458984,1299.0
83.009170253,1445.0
83.025881522,1393.0
83.042592791,1380.0
83.059304060,1373.0
83.076015329,1349.0
83.092726598,1406.0
83.109437867,1388.0
83.126149136,1388.0
83.142860405,1402.0
83.159571674,1437.0
83.176282943,1544.0
83.192994212,1375.0
83.209705480,1380.0
83.226416749,1424.0
83.243128018,1517.0
83.259839287,1401.0
83.276550556,1400.0
83.293261825,1409.0
83.309973094,1423.0
83.326684363,1367.0
83.343395632,1400.0
83.360106901,1418.0
83.376818170,1391.0
83.393529439,1379.0
83.410240708,1378.0
83.426951977,1464.0
83.443663246,1410.0
83.460374515,1403.0
83.477085784,1405.0
83.493797053,1365.0
83.510508322,1384.0
83.527219591,1378.0
83.543930860,1340.0
83.560642129,1451.0
83.577353398,1462.0
83.594064667,1352.0
83.610775936,1414.0
83.627487205,1382.0
83.644198474,1332.0
83.660909743,1330.0
83.677621012,1396.0
83.694332281,1403.0
83.711043550,1407.0
83.727754819,1426.0
83.744466088,1442.0
83.761177357,1428.0
83.777888626,1321.0
83.794599895,1299.0
83.811311164,1373.0
83.828022433,1350.0
83.844733702,1441.0
83.861444971,1332.0
83.878156240,1353.0
83.894867509,1375.0
83.911578778,1399.0
83.928290047,1411.0
83.945001316,1336.0
83.961712584,1423.0
83.978423853,1342.0
83.995135122,1413.0
84.011846391,1447.0
84.028557660,1406.0
84.045268929,1367.0
84.061980198,1382.0
84.078691467,1339.0
84.095402736,1332.0
84.112114005,1400.0
84.128825274,1349.0
84.145536543,1403.0
84.162247812,1358.0
84.178959081,1411.0
84.195670350,1342.0
84.212381619,1373.0
84.229092888,1394.0
84.245804157,1362.0
84.262515426,1388.0
84.279226695,1430.0
84.295937964,1380.0
84.312649233,1460.0
84.329360502,1333.0
84.346071771,1353.0
84.362783040,1401.0
84.379494309,1363.0
84.396205578,1346.0
84.412916847,1400.0
84.429628116,1420.0
84.446339385,1366.0
84.463050654,1381.0
84.479761923,1410.0
84.496473192,1393.0
84.513184461,1448.0
84.529895730,1292.0
84.546606999,1327.0
84.563318268,1464.0
84.580029537,1400.0
84.596740806,1363.0
84.613452075,1361.0
84.630163344,1344.0
84.646874613,1363.0
84.663585882,1393.0
84.680297151,1263.0
84.697008420,1425.0
84.713719689,1358.0
84.730430957,1372.0
84.747142226,1399.0
84.763853495,1410.0
84.780564764,1336.0
84.797276033,1391.0
84.813987302,1422.0
84.830698571,1351.0
84.847409840,1374.0
84.864121109,1369.0
84.880832378,1310.0
84.897543647,1391.0
84.914254916,1337.0
84.930966185,1364.0
84.947677454,1400.0
84.964388723,1405.0
84.981099992,1300.0
84.997811261,1367.0
85.014522530,1317.0
85.031233799,1400.0
85.047945068,1397.0
85.064656337,1348.0
85.081367606,1372.0
85.098078875,1395.0
85.114790144,1344.0
85.131501413,1382.0
85.148212682,1359.0
85.164923951,1358.0
85.181635220,1395.0
85.198346489,1274.0
85.215057758,1340.0
85.231769027,1363.0
85.248480296,1364.0
85.265191565,1271.0
85.281902834,1301.0
85.298614103,1389.0
85.315325372,1394.0
85.332036641,1353.0
85.348747910,1328.0
85.365459179,1355.0
85.382170448,1418.0
85.398881717,1393.0
85.415592986,1398.0
85.432304255,1335.0
85.449015524,1329.0
85.465726793,1373.0
85.482438061,1348.0
85.499149330,1339.0
85.515860599,1339.0
85.532571868,1303.0
85.549283137,1370.0
85.565994406,1388.0
85.582705675,1408.0
85.599416944,1426.0
85.616128213,1350.0
85.632839482,1392.0
85.649550751,1379.0
85.666262020,1398.0
85.682973289,1354.0
85.699684558,1338.0
85.716395827,1323.0
85.733107096,1344.0
85.749818365,1327.0
85.766529634,1333.0
85.783240903,1289.0
85.799952172,1468.0
85.816663441,1334.0
85.833374710,1337.0
85.850085979,1365.0
85.866797248,1365.0
85.883508517,1369.0
85.900219786,1355.0
85.916931055,1378.0
85.933642324,1336.0
85.950353593,1335.0
85.967064862,1290.0
85.983776131,1324.0
86.000487400,1304.0
86.017198669,1302.0
86.033909938,1354.0
86.050621207,1414.0
86.067332476,1286.0
86.084043745,1378.0
86.100755014,1340.0
86.117466283,1396.0
86.134177552,1370.0
86.150888821,1371.0
86.167600090,1443.0
86.184311359,1378.0
86.201022628,1311.0
86.217733897,1326.0
86.234445166,1369.0
86.251156434,1390.0
86.267867703,1267.0
86.284578972,1264.0
86.301290241,1352.0
86.318001510,1346.0
86.334712779,1328.0
86.351424048,1331.0
86.368135317,1359.0
86.384846586,1431.0
86.401557855,1304.0
86.418269124,1386.0
86.434980393,1243.0
86.451691662,1394.0
86.468402931,1280.0
86.485114200,1344.0
86.501825469,1332.0
86.518536738,1386.0
86.535248007,1363.0
86.551959276,1414.0
86.568670545,1378.0
86.585381814,1378.0
86.602093083,1300.0
86.618804352,1328.0
86.635515621,1332.0
86.652226890,1293.0
86.668938159,1405.0
86.685649428,1303.0
86.702360697,1354.0
86.719071966,1403.0
86.735783235,1366.0
86.752494504,1278.0
86.769205773,1286.0
86.785917042,1310.0
86.802628311,1323.0
86.819339580,1294.0
86.836050849,1357.0
86.852762118,1366.0
86.869473387,1385.0
86.886184656,1372.0
86.902895925,1363.0
86.919607194,1393.0
86.936318463,1320.0
86.953029732,1296.0
86.969741001,1398.0
86.986452270,1309.0
87.003163539,1269.0
87.019874807,1320.0
87.036586076,1299.0
87.053297345,1281.0
87.070008614,1353.0
87.086719883,1394.0
87.103431152,1356.0
87.120142421,1317.0
87.136853690,1378.0
87.153564959,1379.0
87.170276228,1355.0
87.186987497,1281.0
87.203698766,1307.0
87.220410035,1383.0
87.237121304,1292.0
87.253832573,1307.0
87.270543842,1409.0
87.287255111,1291.0
87.303966380,1375.0
87.320677649,1402.0
87.337388918,1334.0
87.354100187,1309.0
87.370811456,1336.0
87.387522725,1329.0
87.404233994,1353.0
87.420945263,1278.0
87.437656532,1324.0
87.454367801,1351.0
87.471079070,1348.0
87.487790339,1358.0
87.504501608,1339.0
87.521212877,1335.0
87.537924146,1320.0
87.554635415,1360.0
87.571346684,1392.0
87.588057953,1358.0
87.604769222,1342.0
87.621480491,1332.0
87.638191760,1256.0
87.654903029,1335.0
87.671614298,1281.0
87.688325567,1368.0
87.705036836,1340.0
87.721748105,1322.0
87.738459374,1354.0
87.755170643,1372.0
87.771881911,1296.0
87.788593180,1407.0
87.805304449,1311.0
87.822015718,1399.0
87.838726987,1297.0
87.855438256,1336.0
87.872149525,1278.0
87.888860794,1321.0
87.905572063,1291.0
87.922283332,1329.0
87.938994601,1356.0
87.955705870,1370.0
87.972417139,1317.0
87.989128408,1344.0
88.005839677,1393.0
88.022550946,1320.0
88.039262215,1322.0
88.055973484,1296.0
88.072684753,1374.0
88.089396022,1323.0
88.106107291,1313.0
88.122818560,1301.0
88.139529829,1376.0
88.156241098,1283.0
88.172952367,1300.0
88.189663636,1338.0
88.206374905,1291.0
88.223086174,1326.0
88.239797443,1290.0
88.256508712,1327.0
88.273219981,1348.0
88.289931250,1350.0
88.306642519,1351.0
88.323353788,1261.0
88.340065057,1236.0
88.356776326,1285.0
88.373487595,1305.0
88.390198864,1403.0
88.406910133,1296.0
88.423621402,1345.0
88.440332671,1304.0
88.457043940,1340.0
88.473755209,1344.0
88.490466478,1271.0
88.507177747,1294.0
88.523889016,1372.0
88.540600284,1311.0
88.557311553,1300.0
88.574022822,1285.0
88.590734091,1230.0
88.607445360,1355.0
88.624156629,1399.0
88.640867898,1341.0
88.657579167,1443.0
88.674290436,1293.0
88.691001705,1375.0
88.707712974,1303.0
88.724424243,1325.0
88.741135512,1279.0
88.757846781,1317.0
88.774558050,1316.0
88.791269319,1309.0
88.807980588,1300.0
88.824691857,1307.0
88.841403126,1337.0
88.858114395,1382.0
88.874825664,1332.0
88.891536933,1295.0
88.908248202,1320.0
88.924959471,1368.0
88.941670740,1342.0
88.958382009,1328.0
88.975093278,1267.0
88.991804547,1261.0
89.008515816,1328.0
89.025227085,1310.0
89.041938354,1309.0
89.058649623,1318.0
89.075360892,1319.0
89.092072161,1319.0
89.108783430,1285.0
89.125494699,1306.0
89.142205968,1292.0
89.158917237,1329.0
89.175628506,1279.0
89.192339775,1378.0
89.209051044,1302.0
89.225762313,1341.0
89.242473582,1327.0
89.259184851,1317.0
89.275896120,1296.0
89.292607388,1340.0
89.309318657,1308.0
89.326029926,1358.0
89.342741195,1346.0
89.359452464,1272.0
89.376163733,1342.0
89.392875002,1323.0
89.409586271,1322.0
89.426297540,1288.0
89.443008809,1289.0
89.459720078,1290.0
89.476431347,1355.0
89.493142616,1308.0
89.509853885,1317.0
89.526565154,1331.0
89.543276423,1300.0
89.559987692,1286.0
89.576698961,1333.0
89.593410230,1295.0
89.610121499,1351.0
89.626832768,1338.0
89.643544037,1325.0
89.660255306,1327.0
89.676966575,1337.0
89.693677844,1360.0
89.710389113,1355.0
89.727100382,1356.0
89.743811651,1331.0
89.760522920,1287.0
89.777234189,1342.0
89.793945458,1348.0
89.810656727,1361.0
89.827367996,1294.0
89.844079265,1331.0
89.860790534,1331.0
89.877501803,1321.0
89.894213072,1320.0
89.910924341,1350.0
89.927635610,1341.0
89.944346879,1295.0
89.961058148,1292.0
89.977769417,1292.0
89.994480686,1274.0
90.011191955,1344.0
90.027903224,1353.0
90.044614493,1247.0
90.061325761,1319.0
90.078037030,1293.0
90.094748299,1299.0
90.111459568,1334.0
90.128170837,1303.0
90.144882106,1319.0
90.161593375,1379.0
90.178304644,1306.0
90.195015913,1317.0
90.211727182,1380.0
90.228438451,1324.0
90.245149720,1350.0
90.261860989,1329.0
90.278572258,1325.0
90.295283527,1300.0
90.311994796,1313.0
90.328706065,1391.0
90.345417334,1260.0
90.362128603,1268.0
90.378839872,1340.0
90.395551141,1220.0
90.412262410,1255.0
90.428973679,1343.0
90.445684948,1288.0
90.462396217,1290.0
90.479107486,1321.0
90.495818755,1299.0
90.512530024,1319.0
90.529241293,1285.0
90.545952562,1354.0
90.562663831,1299.0
90.579375100,1314.0
90.596086369,1343.0
90.612797638,1326.0
90.629508907,1263.0
90.646220176,1311.0
90.662931445,1340.0
90.679642714,1290.0
90.696353983,1325.0
90.713065252,1308.0
90.729776521,1293.0
90.746487790,1303.0
90.763199059,1281.0
90.779910328,1293.0
90.796621597,1334.0
90.813332865,1305.0
90.830044134,1352.0
90.846755403,1337.0
90.863466672,1305.0
90.880177941,1368.0
90.896889210,1283.0
90.913600479,1333.0
90.930311748,1359.0
90.947023017,1350.0
90.963734286,1303.0
90.980445555,1334.0
90.997156824,1312.0
91.013868093,1361.0
91.030579362,1370.0
91.047290631,1396.0
91.064001900,1328.0
91.080713169,1305.0
91.097424438,1303.0
91.114135707,1320.0
91.130846976,1312.0
91.147558245,1337.0
91.164269514,1335.0
91.180980783,1333.0
91.197692052,1326.0
91.214403321,1313.0
91.231114590,1351.0
91.247825859,1294.0
91.264537128,1341.0
91.281248397,1351.0
91.297959666,1381.0
91.314670935,1365.0
91.331382204,1390.0
91.348093473,1321.0
91.364804742,1312.0
91.381516011,1396.0
91.398227280,1343.0
91.414938549,1372.0
91.431649818,1407.0
91.448361087,1322.0
91.465072356,1347.0
91.481783625,1345.0
91.498494894,1321.0
91.515206163,1312.0
91.531917432,1297.0
91.548628701,1380.0
91.565339970,1354.0
91.582051238,1358.0
91.598762507,1379.0
91.615473776,1357.0
91.632185045,1391.0
91.648896314,1352.0
91.665607583,1362.0
91.682318852,1357.0
91.699030121,1373.0
91.715741390,1351.0
91.732452659,1384.0
91.749163928,1369.0
91.765875197,1381.0
91.782586466,1407.0
91.799297735,1397.0
91.816009004,1384.0
91.832720273,1397.0
91.849431542,1388.0
91.866142811,1432.0
91.882854080,1412.0
91.899565349,1421.0
91.916276618,1457.0
91.932987887,1439.0
91.949699156,1426.0
91.966410425,1366.0
91.983121694,1424.0
91.999832963,1327.0
92.016544232,1419.0
92.033255501,1446.0
92.049966770,1467.0
92.066678039,1360.0
92.083389308,1440.0
92.100100577,1421.0
92.116811846,1457.0
92.133523115,1454.0
92.150234384,1458.0
92.166945653,1428.0
92.183656922,1391.0
92.200368191,1449.0
92.217079460,1441.0
92.233790729,1490.0
92.250501998,1406.0
92.267213267,1520.0
92.283924536,1486.0
92.300635805,1500.0
92.317347074,1538.0
92.334058342,1562.0
92.350769611,1541.0
92.367480880,1555.0
92.384192149,1575.0
92.400903418,1585.0
92.417614687,1581.0
92.434325956,1615.0
92.451037225,1663.0
92.467748494,1619.0
92.484459763,1660.0
92.501171032,1692.0
92.517882301,1634.0
92.534593570,1655.0
92.551304839,1692.0
92.568016108,1738.0
92.584727377,1778.0
92.601438646,1766.0
92.618149915,1721.0
92.634861184,1751.0
92.651572453,1817.0
92.668283722,1786.0
92.684994991,1850.0
92.701706260,1845.0
92.718417529,1806.0
92.735128798,1789.0
92.751840067,1750.0
92.768551336,1735.0
92.785262605,1741.0
92.801973874,1844.0
92.818685143,1788.0
92.835396412,1710.0
92.852107681,1796.0
92.868818950,1762.0
92.885530219,1706.0
92.902241488,1794.0
92.918952757,1621.0
92.935664026,1769.0
92.952375295,1724.0
92.969086564,1651.0
92.985797833,1705.0
93.002509102,1663.0
93.019220371,1705.0
93.035931640,1636.0
93.052642909,1661.0
93.069354178,1593.0
93.086065447,1641.0
93.102776715,1573.0
93.119487984,1608.0
93.136199253,1474.0
93.152910522,1566.0
93.169621791,1474.0
93.186333060,1507.0
93.203044329,1511.0
93.219755598,1450.0
93.236466867,1432.0
93.253178136,1503.0
93.269889405,1341.0
93.286600674,1461.0
93.303311943,1372.0
93.320023212,1365.0
93.336734481,1349.0
93.353445750,1415.0
93.370157019,1386.0
93.386868288,1485.0
93.403579557,1403.0
93.420290826,1363.0
93.437002095,1338.0
93.453713364,1374.0
93.470424633,1311.0
93.487135902,1382.0
93.503847171,1328.0
93.520558440,1323.0
93.537269709,1377.0
93.553980978,1346.0
93.570692247,1334.0
93.587403516,1391.0
93.604114785,1354.0
93.620826054,1326.0
93.637537323,1286.0
93.654248592,1260.0
93.670959861,1313.0
93.687671130,1285.0
93.704382399,1263.0
93.721093668,1289.0
93.737804937,1284.0
93.754516206,1328.0
93.771227475,1297.0
93.787938744,1314.0
93.804650013,1286.0
93.821361282,1254.0
93.838072551,1375.0
93.854783819,1316.0
93.871495088,1230.0
93.888206357,1241.0
93.904917626,1255.0
93.921628895,1317.0
93.938340164,1244.0
93.955051433,1299.0
93.971762702,1291.0
93.988473971,1367.0
94.005185240,1282.0
94.021896509,1281.0
94.038607778,1286.0
94.055319047,1196.0
94.072030316,1241.0
94.088741585,1244.0
94.105452854,1295.0
94.122164123,1317.0
94.138875392,1191.0
94.155586661,1229.0
94.172297930,1239.0
94.189009199,1322.0
94.205720468,1234.0
94.222431737,1258.0
94.239143006,1317.0
94.255854275,1256.0
94.272565544,1214.0
94.289276813,1263.0
94.305988082,1284.0
94.322699351,1234.0
94.339410620,1236.0
94.356121889,1342.0
94.372833158,1203.0
94.389544427,1228.0
94.406255696,1248.0
94.422966965,1250.0
94.439678234,1257.0
94.456389503,1285.0
94.473100772,1212.0
94.489812041,1257.0
94.506523310,1234.0
94.523234579,1313.0
94.539945848,1353.0
94.556657117,1266.0
94.573368386,1247.0
94.590079655,1293.0
94.606790924,1244.0
94.623502192,1327.0
94.640213461,1309.0
94.656924730,1238.0
94.673635999,1329.0
94.690347268,1301.0
94.707058537,1208.0
94.723769806,1234.0
94.740481075,1318.0
94.757192344,1257.0
94.773903613,1293.0
94.790614882,1216.0
94.807326151,1260.0
94.824037420,1282.0
94.840748689,1260.0
94.857459958,1336.0
94.874171227,1325.0
94.890882496,1279.0
94.907593765,1301.0
94.924305034,1228.0
94.941016303,1290.0
94.957727572,1231.0
94.974438841,1271.0
94.991150110,1262.0
