[Measurement conditions]
Sample identification,
Comment - 1,"finito"
Comment - 2,"Configuration=MRI TC-Basic Stage, Owner=User-1, Creation date=26-10-2009 9:18:44"
Comment - 3,"Goniometer=PW3050/60 (Theta/Theta); Minimum step size 2Theta:0.001; Minimum step size Omega:0.001"
Comment - 4,"Sample stage=MRI TC-Basic (PtRh heat strip)"
Comment - 5,"Diffractometer system=XPERT-PRO"
Comment - 6,"Measurement program=FS-L, Owner=joana, Creation date=25-11-2014 17:28:08"
Anode material,Cu
K-Alpha1 wavelength,1.5405980
K-Alpha2 wavelength,1.5444260
Ratio K-Alpha2/K-Alpha1,0.500
Divergence slit,Fixed,0.76mm
Monochromator used,NO
Generator voltage, 45
Tube current, 40
File date and time,15-Dez-2017 21:54
Unit cell,
h k l, 0 0 0
Temperature [K],523
Scan axis,Gonio
Scan range,24.995999996,94.999505744
Scan step size,0.0167113
No. of points, 4189
Scan type,CONTINUOUS
Time per step,118.110
[Scan points]
Angle,Intensity
25.004355630,2310.0
25.021066899,2289.0
25.037778168,2168.0
25.054489437,2266.0
25.071200706,2231.0
25.087911975,2163.0
25.104623244,2248.0
25.121334513,2307.0
25.138045782,2178.0
25.154757051,2243.0
25.171468320,2198.0
25.188179589,2163.0
25.204890858,2183.0
25.221602127,2274.0
25.238313396,2225.0
25.255024665,2206.0
25.271735934,2235.0
25.288447203,2223.0
25.305158472,2326.0
25.321869741,2187.0
25.338581010,2144.0
25.355292279,2248.0
25.372003548,2207.0
25.388714816,2263.0
25.405426085,2304.0
25.422137354,2241.0
25.438848623,2205.0
25.455559892,2202.0
25.472271161,2139.0
25.488982430,2275.0
25.505693699,2199.0
25.522404968,2242.0
25.539116237,2189.0
25.555827506,2217.0
25.572538775,2262.0
25.589250044,2202.0
25.605961313,2240.0
25.622672582,2156.0
25.639383851,2220.0
25.656095120,2212.0
25.672806389,2202.0
25.689517658,2242.0
25.706228927,2190.0
25.722940196,2154.0
25.739651465,2245.0
25.756362734,2265.0
25.773074003,2276.0
25.789785272,2194.0
25.806496541,2217.0
25.823207810,2185.0
25.839919079,2121.0
25.856630348,2261.0
25.873341617,2224.0
25.890052886,2199.0
25.906764155,2221.0
25.923475424,2146.0
25.940186693,2110.0
25.956897962,2176.0
25.973609231,2237.0
25.990320500,2112.0
26.007031769,2183.0
26.023743038,2265.0
26.040454307,2281.0
26.057165576,2218.0
26.073876845,2179.0
26.090588114,2268.0
26.107299383,2172.0
26.124010652,2211.0
26.140721921,2197.0
26.157433189,2151.0
26.174144458,2258.0
26.190855727,2264.0
26.207566996,2206.0
26.224278265,2243.0
26.240989534,2144.0
26.257700803,2167.0
26.274412072,2171.0
26.291123341,2157.0
26.307834610,2203.0
26.324545879,2161.0
26.341257148,2141.0
26.357968417,2158.0
26.374679686,2265.0
26.391390955,2207.0
26.408102224,2225.0
26.424813493,2175.0
26.441524762,2151.0
26.458236031,2203.0
26.474947300,2175.0
26.491658569,2156.0
26.508369838,2131.0
26.525081107,2193.0
26.541792376,2245.0
26.558503645,2199.0
26.575214914,2136.0
26.591926183,2200.0
26.608637452,2109.0
26.625348721,2179.0
26.642059990,2185.0
26.658771259,2166.0
26.675482528,2109.0
26.692193797,2183.0
26.708905066,2177.0
26.725616335,2187.0
26.742327604,2126.0
26.759038873,2194.0
26.775750142,2255.0
26.792461411,2164.0
26.809172680,2134.0
26.825883949,2235.0
26.842595218,2229.0
26.859306487,2117.0
26.876017756,2237.0
26.892729025,2213.0
26.909440293,2252.0
26.926151562,2196.0
26.942862831,2275.0
26.959574100,2234.0
26.976285369,2241.0
26.992996638,2161.0
27.009707907,2210.0
27.026419176,2165.0
27.043130445,2221.0
27.059841714,2214.0
27.076552983,2191.0
27.093264252,2228.0
27.109975521,2267.0
27.126686790,2189.0
27.143398059,2225.0
27.160109328,2162.0
27.176820597,2196.0
27.193531866,2218.0
27.210243135,2109.0
27.226954404,2247.0
27.243665673,2161.0
27.260376942,2177.0
27.277088211,2160.0
27.293799480,2261.0
27.310510749,2240.0
27.327222018,2254.0
27.343933287,2202.0
27.360644556,2223.0
27.377355825,2231.0
27.394067094,2225.0
27.410778363,2292.0
27.427489632,2103.0
27.444200901,2252.0
27.460912170,2186.0
27.477623439,2179.0
27.494334708,2208.0
27.511045977,2181.0
27.527757246,2300.0
27.544468515,2216.0
27.561179784,2251.0
27.577891053,2198.0
27.594602322,2089.0
27.611313591,2163.0
27.628024860,2042.0
27.644736129,2240.0
27.661447398,2071.0
27.678158666,2146.0
27.694869935,2159.0
27.711581204,2171.0
27.728292473,2191.0
27.745003742,2165.0
27.761715011,2276.0
27.778426280,2176.0
27.795137549,2264.0
27.811848818,2124.0
27.828560087,2164.0
27.845271356,2212.0
27.861982625,2195.0
27.878693894,2228.0
27.895405163,2194.0
27.912116432,2145.0
27.928827701,2265.0
27.945538970,2247.0
27.962250239,2261.0
27.978961508,2213.0
27.995672777,2133.0
28.012384046,2154.0
28.029095315,2205.0
28.045806584,2170.0
28.062517853,2263.0
28.079229122,2174.0
28.095940391,2199.0
28.112651660,2198.0
28.129362929,2150.0
28.146074198,2159.0
28.162785467,2197.0
28.179496736,2174.0
28.196208005,2260.0
28.212919274,2191.0
28.229630543,2234.0
28.246341812,2196.0
28.263053081,2423.0
28.279764350,2972.0
28.296475619,3252.0
28.313186888,2467.0
28.329898157,2330.0
28.346609426,2495.0
28.363320695,2798.0
28.380031964,2559.0
28.396743233,2405.0
28.413454502,2254.0
28.430165770,2301.0
28.446877039,2270.0
28.463588308,2427.0
28.480299577,2312.0
28.497010846,2365.0
28.513722115,2282.0
28.530433384,2308.0
28.547144653,2442.0
28.563855922,2331.0
28.580567191,2348.0
28.597278460,2311.0
28.613989729,2318.0
28.630700998,2313.0
28.647412267,2369.0
28.664123536,2405.0
28.680834805,2265.0
28.697546074,2264.0
28.714257343,2342.0
28.730968612,2317.0
28.747679881,2318.0
28.764391150,2267.0
28.781102419,2309.0
28.797813688,2239.0
28.814524957,2277.0
28.831236226,2254.0
28.847947495,2228.0
28.864658764,2206.0
28.881370033,2237.0
28.898081302,2245.0
28.914792571,2133.0
28.931503840,2215.0
28.948215109,2259.0
28.964926378,2174.0
28.981637647,2213.0
28.998348916,2219.0
29.015060185,2286.0
29.031771454,2207.0
29.048482723,2152.0
29.065193992,2192.0
29.081905261,2229.0
29.098616530,2203.0
29.115327799,2222.0
29.132039068,2152.0
29.148750337,2189.0
29.165461606,2278.0
29.182172875,2203.0
29.198884143,2182.0
29.215595412,2247.0
29.232306681,2110.0
29.249017950,2184.0
29.265729219,2190.0
29.282440488,2199.0
29.299151757,2197.0
29.315863026,2158.0
29.332574295,2179.0
29.349285564,2147.0
29.365996833,2282.0
29.382708102,2208.0
29.399419371,2115.0
29.416130640,2078.0
29.432841909,2110.0
29.449553178,2126.0
29.466264447,2237.0
29.482975716,2167.0
29.499686985,2155.0
29.516398254,2096.0
29.533109523,2133.0
29.549820792,2130.0
29.566532061,2190.0
29.583243330,2188.0
29.599954599,2092.0
29.616665868,2110.0
29.633377137,2185.0
29.650088406,2082.0
29.666799675,2196.0
29.683510944,2071.0
29.700222213,2230.0
29.716933482,2152.0
29.733644751,2179.0
29.750356020,2112.0
29.767067289,2061.0
29.783778558,2195.0
29.800489827,2204.0
29.817201096,2095.0
29.833912365,2146.0
29.850623634,2189.0
29.867334903,2090.0
29.884046172,2139.0
29.900757441,2092.0
29.917468710,2115.0
29.934179979,2162.0
29.950891247,2095.0
29.967602516,2088.0
29.984313785,2063.0
30.001025054,2206.0
30.017736323,2128.0
30.034447592,2146.0
30.051158861,2062.0
30.067870130,2154.0
30.084581399,2236.0
30.101292668,2064.0
30.118003937,2222.0
30.134715206,2103.0
30.151426475,2160.0
30.168137744,2130.0
30.184849013,2136.0
30.201560282,2147.0
30.218271551,2123.0
30.234982820,2178.0
30.251694089,2104.0
30.268405358,2166.0
30.285116627,2169.0
30.301827896,2161.0
30.318539165,2120.0
30.335250434,2112.0
30.351961703,2140.0
30.368672972,2202.0
30.385384241,2148.0
30.402095510,2145.0
30.418806779,2114.0
30.435518048,2086.0
30.452229317,2174.0
30.468940586,2185.0
30.485651855,2137.0
30.502363124,2162.0
30.519074393,2037.0
30.535785662,2191.0
30.552496931,2094.0
30.569208200,2101.0
30.585919469,2153.0
30.602630738,2031.0
30.619342007,2136.0
30.636053276,2061.0
30.652764545,2127.0
30.669475814,2062.0
30.686187083,2122.0
30.702898352,2136.0
30.719609620,2072.0
30.736320889,2163.0
30.753032158,2154.0
30.769743427,2116.0
30.786454696,2107.0
30.803165965,2076.0
30.819877234,2146.0
30.836588503,2216.0
30.853299772,2116.0
30.870011041,2156.0
30.886722310,2121.0
30.903433579,2204.0
30.920144848,2174.0
30.936856117,2139.0
30.953567386,2141.0
30.970278655,2130.0
30.986989924,2112.0
31.003701193,2173.0
31.020412462,2113.0
31.037123731,2070.0
31.053835000,2152.0
31.070546269,2162.0
31.087257538,2156.0
31.103968807,2147.0
31.120680076,2113.0
31.137391345,2109.0
31.154102614,2119.0
31.170813883,2127.0
31.187525152,2117.0
31.204236421,2107.0
31.220947690,2071.0
31.237658959,2194.0
31.254370228,2113.0
31.271081497,2128.0
31.287792766,2044.0
31.304504035,2071.0
31.321215304,2109.0
31.337926573,2133.0
31.354637842,2031.0
31.371349111,2124.0
31.388060380,2085.0
31.404771649,2136.0
31.421482918,2018.0
31.438194187,2080.0
31.454905456,2116.0
31.471616724,2066.0
31.488327993,2114.0
31.505039262,2139.0
31.521750531,2134.0
31.538461800,2205.0
31.555173069,2140.0
31.571884338,2087.0
31.588595607,2079.0
31.605306876,2110.0
31.622018145,2168.0
31.638729414,2075.0
31.655440683,2120.0
31.672151952,2075.0
31.688863221,2117.0
31.705574490,2092.0
31.722285759,2186.0
31.738997028,2072.0
31.755708297,2061.0
31.772419566,2237.0
31.789130835,2067.0
31.805842104,2134.0
31.822553373,2118.0
31.839264642,2094.0
31.855975911,2097.0
31.872687180,2082.0
31.889398449,2134.0
31.906109718,2202.0
31.922820987,2138.0
31.939532256,2102.0
31.956243525,2063.0
31.972954794,2208.0
31.989666063,2110.0
32.006377332,2139.0
32.023088601,2127.0
32.039799870,2087.0
32.056511139,2160.0
32.073222408,2162.0
32.089933677,2211.0
32.106644946,2165.0
32.123356215,2081.0
32.140067484,2103.0
32.156778753,2065.0
32.173490022,2161.0
32.190201291,2200.0
32.206912560,2095.0
32.223623829,2105.0
32.240335097,2143.0
32.257046366,2090.0
32.273757635,2147.0
32.290468904,2091.0
32.307180173,2113.0
32.323891442,2183.0
32.340602711,2063.0
32.357313980,2103.0
32.374025249,2098.0
32.390736518,2093.0
32.407447787,2170.0
32.424159056,2162.0
32.440870325,2158.0
32.457581594,2098.0
32.474292863,2119.0
32.491004132,2077.0
32.507715401,2075.0
32.524426670,2160.0
32.541137939,2070.0
32.557849208,2044.0
32.574560477,2165.0
32.591271746,2166.0
32.607983015,2166.0
32.624694284,2197.0
32.641405553,2130.0
32.658116822,2120.0
32.674828091,2182.0
32.691539360,2155.0
32.708250629,2164.0
32.724961898,2173.0
32.741673167,2124.0
32.758384436,2103.0
32.775095705,2118.0
32.791806974,2198.0
32.808518243,2128.0
32.825229512,2028.0
32.841940781,2063.0
32.858652050,2046.0
32.875363319,2067.0
32.892074588,2070.0
32.908785857,2162.0
32.925497126,2126.0
32.942208395,2095.0
32.958919664,2144.0
32.975630933,2135.0
32.992342201,2131.0
33.009053470,2084.0
33.025764739,2025.0
33.042476008,2100.0
33.059187277,2097.0
33.075898546,2089.0
33.092609815,2133.0
33.109321084,2082.0
33.126032353,2079.0
33.142743622,2059.0
33.159454891,2069.0
33.176166160,2051.0
33.192877429,2143.0
33.209588698,2048.0
33.226299967,2119.0
33.243011236,2156.0
33.259722505,2068.0
33.276433774,2104.0
33.293145043,2038.0
33.309856312,2075.0
33.326567581,2045.0
33.343278850,2084.0
33.359990119,2071.0
33.376701388,2142.0
33.393412657,2123.0
33.410123926,2067.0
33.426835195,1992.0
33.443546464,2063.0
33.460257733,2076.0
33.476969002,2104.0
33.493680271,2073.0
33.510391540,2155.0
33.527102809,2075.0
33.543814078,2095.0
33.560525347,2006.0
33.577236616,2136.0
33.593947885,2118.0
33.610659154,2109.0
33.627370423,2039.0
33.644081692,2118.0
33.660792961,2079.0
33.677504230,2057.0
33.694215499,2060.0
33.710926768,2051.0
33.727638037,2107.0
33.744349306,2053.0
33.761060574,2016.0
33.777771843,2082.0
33.794483112,1995.0
33.811194381,2132.0
33.827905650,2099.0
33.844616919,2033.0
33.861328188,2133.0
33.878039457,2045.0
33.894750726,2015.0
33.911461995,2116.0
33.928173264,2160.0
33.944884533,2016.0
33.961595802,2134.0
33.978307071,2116.0
33.995018340,2084.0
34.011729609,2060.0
34.028440878,1969.0
34.045152147,2105.0
34.061863416,2088.0
34.078574685,2127.0
34.095285954,2186.0
34.111997223,1973.0
34.128708492,2154.0
34.145419761,2056.0
34.162131030,1991.0
34.178842299,1979.0
34.195553568,2108.0
34.212264837,2064.0
34.228976106,2150.0
34.245687375,2155.0
34.262398644,2089.0
34.279109913,2089.0
34.295821182,2039.0
34.312532451,1958.0
34.329243720,1997.0
34.345954989,2066.0
34.362666258,2044.0
34.379377527,2078.0
34.396088796,2035.0
34.412800065,2128.0
34.429511334,2092.0
34.446222603,2135.0
34.462933872,2019.0
34.479645141,2131.0
34.496356410,2118.0
34.513067679,2069.0
34.529778947,2088.0
34.546490216,2185.0
34.563201485,2154.0
34.579912754,2012.0
34.596624023,2126.0
34.613335292,2021.0
34.630046561,2029.0
34.646757830,1998.0
34.663469099,2068.0
34.680180368,1995.0
34.696891637,2147.0
34.713602906,2098.0
34.730314175,2083.0
34.747025444,2074.0
34.763736713,2092.0
34.780447982,2044.0
34.797159251,2090.0
34.813870520,2040.0
34.830581789,2063.0
34.847293058,2081.0
34.864004327,2076.0
34.880715596,2062.0
34.897426865,2142.0
34.914138134,2099.0
34.930849403,2052.0
34.947560672,2001.0
34.964271941,2115.0
34.980983210,2066.0
34.997694479,2014.0
35.014405748,2059.0
35.031117017,1978.0
35.047828286,2122.0
35.064539555,2045.0
35.081250824,2078.0
35.097962093,2031.0
35.114673362,2060.0
35.131384631,2040.0
35.148095900,2017.0
35.164807169,2058.0
35.181518438,2029.0
35.198229707,2119.0
35.214940976,2083.0
35.231652245,2098.0
35.248363514,2057.0
35.265074783,2062.0
35.281786051,2080.0
35.298497320,2139.0
35.315208589,2078.0
35.331919858,2071.0
35.348631127,2078.0
35.365342396,2106.0
35.382053665,2084.0
35.398764934,2117.0
35.415476203,2104.0
35.432187472,2114.0
35.448898741,2171.0
35.465610010,2075.0
35.482321279,2151.0
35.499032548,2105.0
35.515743817,2058.0
35.532455086,2092.0
35.549166355,2035.0
35.565877624,2072.0
35.582588893,2137.0
35.599300162,2118.0
35.616011431,2010.0
35.632722700,2056.0
35.649433969,2094.0
35.666145238,2044.0
35.682856507,2063.0
35.699567776,2121.0
35.716279045,2083.0
35.732990314,1980.0
35.749701583,2012.0
35.766412852,1988.0
35.783124121,1910.0
35.799835390,2070.0
35.816546659,2083.0
35.833257928,2078.0
35.849969197,2057.0
35.866680466,2101.0
35.883391735,1999.0
35.900103004,2068.0
35.916814273,2032.0
35.933525542,2047.0
35.950236811,2199.0
35.966948080,2057.0
35.983659349,2130.0
36.000370618,2060.0
36.017081887,1986.0
36.033793156,2036.0
36.050504424,2011.0
36.067215693,2040.0
36.083926962,1993.0
36.100638231,2024.0
36.117349500,2087.0
36.134060769,2040.0
36.150772038,2075.0
36.167483307,2070.0
36.184194576,2034.0
36.200905845,2027.0
36.217617114,2008.0
36.234328383,2135.0
36.251039652,2097.0
36.267750921,1988.0
36.284462190,1934.0
36.301173459,2028.0
36.317884728,1999.0
36.334595997,2114.0
36.351307266,2094.0
36.368018535,2063.0
36.384729804,2113.0
36.401441073,2068.0
36.418152342,1939.0
36.434863611,2046.0
36.451574880,2071.0
36.468286149,2031.0
36.484997418,2036.0
36.501708687,2104.0
36.518419956,2166.0
36.535131225,2132.0
36.551842494,2088.0
36.568553763,2120.0
36.585265032,1998.0
36.601976301,2028.0
36.618687570,2097.0
36.635398839,2015.0
36.652110108,2105.0
36.668821377,2095.0
36.685532646,2123.0
36.702243915,2038.0
36.718955184,2039.0
36.735666453,2018.0
36.752377722,2046.0
36.769088991,2134.0
36.785800260,1986.0
36.802511528,2011.0
36.819222797,1972.0
36.835934066,2080.0
36.852645335,2029.0
36.869356604,2095.0
36.886067873,2019.0
36.902779142,2054.0
36.919490411,2064.0
36.936201680,2068.0
36.952912949,2075.0
36.969624218,2045.0
36.986335487,2095.0
37.003046756,1943.0
37.019758025,2141.0
37.036469294,2051.0
37.053180563,2100.0
37.069891832,2064.0
37.086603101,2058.0
37.103314370,1949.0
37.120025639,2086.0
37.136736908,2106.0
37.153448177,2046.0
37.170159446,2041.0
37.186870715,2047.0
37.203581984,2043.0
37.220293253,2024.0
37.237004522,2083.0
37.253715791,2049.0
37.270427060,2115.0
37.287138329,2144.0
37.303849598,2112.0
37.320560867,2015.0
37.337272136,2016.0
37.353983405,2038.0
37.370694674,2101.0
37.387405943,2083.0
37.404117212,2014.0
37.420828481,2047.0
37.437539750,2052.0
37.454251019,2097.0
37.470962288,2007.0
37.487673557,2063.0
37.504384826,2131.0
37.521096095,2046.0
37.537807364,2109.0
37.554518633,1978.0
37.571229901,2042.0
37.587941170,2009.0
37.604652439,2018.0
37.621363708,2059.0
37.638074977,2049.0
37.654786246,2010.0
37.671497515,2006.0
37.688208784,1983.0
37.704920053,2067.0
37.721631322,2109.0
37.738342591,2134.0
37.755053860,2083.0
37.771765129,2077.0
37.788476398,2022.0
37.805187667,2031.0
37.821898936,1982.0
37.838610205,2067.0
37.855321474,2072.0
37.872032743,2082.0
37.888744012,2006.0
37.905455281,2022.0
37.922166550,2079.0
37.938877819,2126.0
37.955589088,2159.0
37.972300357,2054.0
37.989011626,2075.0
38.005722895,2027.0
38.022434164,2094.0
38.039145433,2077.0
38.055856702,2112.0
38.072567971,2078.0
38.089279240,2117.0
38.105990509,2145.0
38.122701778,2060.0
38.139413047,2136.0
38.156124316,2060.0
38.172835585,2113.0
38.189546854,2047.0
38.206258123,2027.0
38.222969392,2009.0
38.239680661,2089.0
38.256391930,2081.0
38.273103199,2080.0
38.289814468,1983.0
38.306525737,1966.0
38.323237005,1979.0
38.339948274,2007.0
38.356659543,2143.0
38.373370812,2090.0
38.390082081,2052.0
38.406793350,2151.0
38.423504619,1988.0
38.440215888,1965.0
38.456927157,1935.0
38.473638426,2027.0
38.490349695,1936.0
38.507060964,2008.0
38.523772233,2040.0
38.540483502,2016.0
38.557194771,2071.0
38.573906040,1932.0
38.590617309,2048.0
38.607328578,2026.0
38.624039847,2018.0
38.640751116,2036.0
38.657462385,2034.0
38.674173654,2086.0
38.690884923,2063.0
38.707596192,2031.0
38.724307461,2050.0
38.741018730,2056.0
38.757729999,2085.0
38.774441268,2058.0
38.791152537,1992.0
38.807863806,2047.0
38.824575075,2039.0
38.841286344,2036.0
38.857997613,1992.0
38.874708882,1925.0
38.891420151,1963.0
38.908131420,2021.0
38.924842689,1999.0
38.941553958,1981.0
38.958265227,2008.0
38.974976496,2050.0
38.991687765,1953.0
39.008399034,1989.0
39.025110303,1999.0
39.041821572,2079.0
39.058532841,2077.0
39.075244110,2073.0
39.091955378,1989.0
39.108666647,2100.0
39.125377916,2024.0
39.142089185,2007.0
39.158800454,1979.0
39.175511723,2076.0
39.192222992,2048.0
39.208934261,2009.0
39.225645530,2021.0
39.242356799,2015.0
39.259068068,2046.0
39.275779337,2052.0
39.292490606,1990.0
39.309201875,2097.0
39.325913144,1966.0
39.342624413,2060.0
39.359335682,2040.0
39.376046951,2102.0
39.392758220,2036.0
39.409469489,2016.0
39.426180758,2043.0
39.442892027,2014.0
39.459603296,2002.0
39.476314565,2079.0
39.493025834,2085.0
39.509737103,2088.0
39.526448372,2016.0
39.543159641,2090.0
39.559870910,2111.0
39.576582179,2039.0
39.593293448,2155.0
39.610004717,2149.0
39.626715986,2105.0
39.643427255,2214.0
39.660138524,2237.0
39.676849793,2274.0
39.693561062,2271.0
39.710272331,2271.0
39.726983600,2349.0
39.743694869,2447.0
39.760406138,2466.0
39.777117407,2322.0
39.793828676,2268.0
39.810539945,2189.0
39.827251214,2257.0
39.843962482,2226.0
39.860673751,2242.0
39.877385020,2066.0
39.894096289,2100.0
39.910807558,2128.0
39.927518827,2053.0
39.944230096,2129.0
39.960941365,2074.0
39.977652634,2125.0
39.994363903,2094.0
40.011075172,2139.0
40.027786441,2119.0
40.044497710,2105.0
40.061208979,2193.0
40.077920248,2121.0
40.094631517,2167.0
40.111342786,2097.0
40.128054055,2101.0
40.144765324,2122.0
40.161476593,1992.0
40.178187862,2080.0
40.194899131,2116.0
40.211610400,2032.0
40.228321669,1962.0
40.245032938,2034.0
40.261744207,2065.0
40.278455476,2040.0
40.295166745,1965.0
40.311878014,2022.0
40.328589283,2030.0
40.345300552,2024.0
40.362011821,2014.0
40.378723090,1932.0
40.395434359,1956.0
40.412145628,2003.0
40.428856897,2005.0
40.445568166,2013.0
40.462279435,2070.0
40.478990704,2034.0
40.495701973,1989.0
40.512413242,1994.0
40.529124511,2097.0
40.545835780,1930.0
40.562547049,2034.0
40.579258318,2028.0
40.595969587,2006.0
40.612680855,1932.0
40.629392124,2005.0
40.646103393,2073.0
40.662814662,1971.0
40.679525931,2018.0
40.696237200,1997.0
40.712948469,1947.0
40.729659738,1987.0
40.746371007,1944.0
40.763082276,1993.0
40.779793545,2052.0
40.796504814,2059.0
40.813216083,1929.0
40.829927352,2001.0
40.846638621,1988.0
40.863349890,1983.0
40.880061159,1972.0
40.896772428,1977.0
40.913483697,2050.0
40.930194966,1969.0
40.946906235,2025.0
40.963617504,1958.0
40.980328773,1931.0
40.997040042,1915.0
41.013751311,1999.0
41.030462580,1977.0
41.047173849,1977.0
41.063885118,1983.0
41.080596387,1976.0
41.097307656,2020.0
41.114018925,1986.0
41.130730194,1998.0
41.147441463,2004.0
41.164152732,2066.0
41.180864001,1942.0
41.197575270,1978.0
41.214286539,2025.0
41.230997808,2067.0
41.247709077,1953.0
41.264420346,1960.0
41.281131615,1987.0
41.297842884,2091.0
41.314554153,2062.0
41.331265422,1974.0
41.347976691,1975.0
41.364687959,2013.0
41.381399228,1982.0
41.398110497,2084.0
41.414821766,2023.0
41.431533035,1993.0
41.448244304,2031.0
41.464955573,2000.0
41.481666842,1993.0
41.498378111,1973.0
41.515089380,1905.0
41.531800649,2032.0
41.548511918,1872.0
41.565223187,1985.0
41.581934456,1985.0
41.598645725,2021.0
41.615356994,1927.0
41.632068263,1939.0
41.648779532,2032.0
41.665490801,1973.0
41.682202070,2039.0
41.698913339,1969.0
41.715624608,2019.0
41.732335877,2044.0
41.749047146,1959.0
41.765758415,1996.0
41.782469684,1980.0
41.799180953,1955.0
41.815892222,1988.0
41.832603491,1999.0
41.849314760,1943.0
41.866026029,2037.0
41.882737298,1964.0
41.899448567,1986.0
41.916159836,1933.0
41.932871105,1970.0
41.949582374,2091.0
41.966293643,1938.0
41.983004912,2043.0
41.999716181,1956.0
42.016427450,1921.0
42.033138719,2050.0
42.049849988,2056.0
42.066561257,1960.0
42.083272526,1923.0
42.099983795,1892.0
42.116695064,2046.0
42.133406332,2066.0
42.150117601,1977.0
42.166828870,1973.0
42.183540139,1938.0
42.200251408,2000.0
42.216962677,2011.0
42.233673946,1982.0
42.250385215,1905.0
42.267096484,1980.0
42.283807753,2020.0
42.300519022,1979.0
42.317230291,1940.0
42.333941560,1984.0
42.350652829,1937.0
42.367364098,1943.0
42.384075367,2048.0
42.400786636,1994.0
42.417497905,2083.0
42.434209174,2055.0
42.450920443,1945.0
42.467631712,1939.0
42.484342981,1975.0
42.501054250,2005.0
42.517765519,2018.0
42.534476788,2076.0
42.551188057,1929.0
42.567899326,2077.0
42.584610595,1987.0
42.601321864,1994.0
42.618033133,2070.0
42.634744402,2039.0
42.651455671,2090.0
42.668166940,1942.0
42.684878209,1956.0
42.701589478,2005.0
42.718300747,2091.0
42.735012016,2083.0
42.751723285,2006.0
42.768434554,2033.0
42.785145823,2027.0
42.801857092,2099.0
42.818568361,2072.0
42.835279630,2069.0
42.851990899,2086.0
42.868702168,2036.0
42.885413436,2037.0
42.902124705,2122.0
42.918835974,2119.0
42.935547243,2014.0
42.952258512,2069.0
42.968969781,2036.0
42.985681050,2020.0
43.002392319,1962.0
43.019103588,1995.0
43.035814857,2131.0
43.052526126,2074.0
43.069237395,2146.0
43.085948664,1943.0
43.102659933,2055.0
43.119371202,2052.0
43.136082471,2126.0
43.152793740,2186.0
43.169505009,2165.0
43.186216278,2081.0
43.202927547,2093.0
43.219638816,2156.0
43.236350085,2084.0
43.253061354,2077.0
43.269772623,2126.0
43.286483892,2123.0
43.303195161,2221.0
43.319906430,2114.0
43.336617699,2205.0
43.353328968,2154.0
43.370040237,2194.0
43.386751506,2212.0
43.403462775,2190.0
43.420174044,2201.0
43.436885313,2166.0
43.453596582,2240.0
43.470307851,2134.0
43.487019120,2171.0
43.503730389,2292.0
43.520441658,2147.0
43.537152927,2116.0
43.553864196,2243.0
43.570575465,2227.0
43.587286734,2282.0
43.603998003,2261.0
43.620709272,2277.0
43.637420541,2233.0
43.654131809,2472.0
43.670843078,2376.0
43.687554347,2424.0
43.704265616,2489.0
43.720976885,2549.0
43.737688154,2509.0
43.754399423,2645.0
43.771110692,2607.0
43.787821961,2638.0
43.804533230,2757.0
43.821244499,2738.0
43.837955768,2908.0
43.854667037,2956.0
43.871378306,2934.0
43.888089575,3064.0
43.904800844,3190.0
43.921512113,3371.0
43.938223382,3395.0
43.954934651,3583.0
43.971645920,3631.0
43.988357189,3779.0
44.005068458,4079.0
44.021779727,4096.0
44.038490996,4226.0
44.055202265,4575.0
44.071913534,4677.0
44.088624803,5097.0
44.105336072,5365.0
44.122047341,5641.0
44.138758610,5918.0
44.155469879,6262.0
44.172181148,6642.0
44.188892417,7095.0
44.205603686,7586.0
44.222314955,7936.0
44.239026224,8478.0
44.255737493,9046.0
44.272448762,9512.0
44.289160031,9812.0
44.305871300,9848.0
44.322582569,10402.0
44.339293838,10267.0
44.356005107,10011.0
44.372716376,9643.0
44.389427645,9408.0
44.406138913,8866.0
44.422850182,8435.0
44.439561451,7835.0
44.456272720,7074.0
44.472983989,6597.0
44.489695258,5974.0
44.506406527,5402.0
44.523117796,5034.0
44.539829065,4526.0
44.556540334,3931.0
44.573251603,3708.0
44.589962872,3482.0
44.606674141,3254.0
44.623385410,3088.0
44.640096679,2855.0
44.656807948,2657.0
44.673519217,2637.0
44.690230486,2504.0
44.706941755,2504.0
44.723653024,2439.0
44.740364293,2336.0
44.757075562,2435.0
44.773786831,2388.0
44.790498100,2245.0
44.807209369,2302.0
44.823920638,2291.0
44.840631907,2287.0
44.857343176,2212.0
44.874054445,2186.0
44.890765714,2255.0
44.907476983,2168.0
44.924188252,2134.0
44.940899521,2115.0
44.957610790,2073.0
44.974322059,2134.0
44.991033328,2189.0
45.007744597,2153.0
45.024455866,2072.0
45.041167135,2033.0
45.057878404,2172.0
45.074589673,2152.0
45.091300942,2131.0
45.108012211,2077.0
45.124723480,2105.0
45.141434749,2080.0
45.158146018,2055.0
45.174857286,2127.0
45.191568555,2089.0
45.208279824,2130.0
45.224991093,2074.0
45.241702362,2061.0
45.258413631,2092.0
45.275124900,2162.0
45.291836169,2156.0
45.308547438,2073.0
45.325258707,2249.0
45.341969976,2168.0
45.358681245,2197.0
45.375392514,2204.0
45.392103783,2189.0
45.408815052,2081.0
45.425526321,2203.0
45.442237590,2129.0
45.458948859,2170.0
45.475660128,2127.0
45.492371397,2112.0
45.509082666,2209.0
45.525793935,2024.0
45.542505204,2047.0
45.559216473,2105.0
45.575927742,1993.0
45.592639011,2065.0
45.609350280,2082.0
45.626061549,2174.0
45.642772818,2088.0
45.659484087,2061.0
45.676195356,2108.0
45.692906625,2087.0
45.709617894,2040.0
45.726329163,2092.0
45.743040432,2085.0
45.759751701,2049.0
45.776462970,2092.0
45.793174239,2054.0
45.809885508,2103.0
45.826596777,2048.0
45.843308046,2086.0
45.860019315,2061.0
45.876730584,2126.0
45.893441853,2136.0
45.910153122,2015.0
45.926864390,2096.0
45.943575659,2223.0
45.960286928,2199.0
45.976998197,2302.0
45.993709466,2375.0
46.010420735,2524.0
46.027132004,2586.0
46.043843273,2683.0
46.060554542,2746.0
46.077265811,2915.0
46.093977080,3048.0
46.110688349,3285.0
46.127399618,3462.0
46.144110887,3847.0
46.160822156,4441.0
46.177533425,4941.0
46.194244694,5895.0
46.210955963,7682.0
46.227667232,8252.0
46.244378501,6337.0
46.261089770,4353.0
46.277801039,3904.0
46.294512308,3800.0
46.311223577,4084.0
46.327934846,4549.0
46.344646115,5293.0
46.361357384,4785.0
46.378068653,3633.0
46.394779922,3007.0
46.411491191,2788.0
46.428202460,2854.0
46.444913729,2978.0
46.461624998,2983.0
46.478336267,3136.0
46.495047536,3485.0
46.511758805,3376.0
46.528470074,3397.0
46.545181343,3433.0
46.561892612,3615.0
46.578603881,3632.0
46.595315150,3517.0
46.612026419,3524.0
46.628737688,3401.0
46.645448957,3338.0
46.662160226,3293.0
46.678871495,3181.0
46.695582763,3060.0
46.712294032,2912.0
46.729005301,2782.0
46.745716570,2688.0
46.762427839,2591.0
46.779139108,2342.0
46.795850377,2336.0
46.812561646,2183.0
46.829272915,2233.0
46.845984184,2165.0
46.862695453,2014.0
46.879406722,1989.0
46.896117991,2073.0
46.912829260,2002.0
46.929540529,1949.0
46.946251798,1938.0
46.962963067,1952.0
46.979674336,2037.0
46.996385605,2033.0
47.013096874,2020.0
47.029808143,1958.0
47.046519412,1939.0
47.063230681,1944.0
47.079941950,1986.0
47.096653219,1957.0
47.113364488,1971.0
47.130075757,1971.0
47.146787026,1872.0
47.163498295,1905.0
47.180209564,1976.0
47.196920833,1974.0
47.213632102,1997.0
47.230343371,1900.0
47.247054640,1892.0
47.263765909,1930.0
47.280477178,1909.0
47.297188447,1902.0
47.313899716,1914.0
47.330610985,1865.0
47.347322254,1910.0
47.364033523,1911.0
47.380744792,1899.0
47.397456061,1933.0
47.414167330,1910.0
47.430878599,1873.0
47.447589867,1852.0
47.464301136,1947.0
47.481012405,1965.0
47.497723674,1904.0
47.514434943,1938.0
47.531146212,1894.0
47.547857481,1925.0
47.564568750,1891.0
47.581280019,1886.0
47.597991288,1975.0
47.614702557,1883.0
47.631413826,1903.0
47.648125095,1953.0
47.664836364,1940.0
47.681547633,1863.0
47.698258902,1935.0
47.714970171,1881.0
47.731681440,1865.0
47.748392709,1879.0
47.765103978,1935.0
47.781815247,1949.0
47.798526516,1844.0
47.815237785,1921.0
47.831949054,1911.0
47.848660323,1892.0
47.865371592,1925.0
47.882082861,1856.0
47.898794130,1850.0
47.915505399,1934.0
47.932216668,1877.0
47.948927937,1864.0
47.965639206,1904.0
47.982350475,1929.0
47.999061744,1849.0
48.015773013,1974.0
48.032484282,1942.0
48.049195551,1994.0
48.065906820,1882.0
48.082618089,1983.0
48.099329358,1877.0
48.116040627,1875.0
48.132751896,1866.0
48.149463165,1860.0
48.166174434,1921.0
48.182885703,1763.0
48.199596972,1948.0
48.216308240,1833.0
48.233019509,1889.0
48.249730778,1933.0
48.266442047,1903.0
48.283153316,1926.0
48.299864585,1944.0
48.316575854,1898.0
48.333287123,1924.0
48.349998392,1864.0
48.366709661,1911.0
48.383420930,1941.0
48.400132199,1892.0
48.416843468,1932.0
48.433554737,1838.0
48.450266006,1825.0
48.466977275,1867.0
48.483688544,1892.0
48.500399813,1909.0
48.517111082,1917.0
48.533822351,1947.0
48.550533620,1828.0
48.567244889,1844.0
48.583956158,1944.0
48.600667427,1906.0
48.617378696,1885.0
48.634089965,1818.0
48.650801234,1828.0
48.667512503,1878.0
48.684223772,1820.0
48.700935041,1861.0
48.717646310,1824.0
48.734357579,1857.0
48.751068848,1933.0
48.767780117,1872.0
48.784491386,1907.0
48.801202655,1775.0
48.817913924,1949.0
48.834625193,1897.0
48.851336462,1850.0
48.868047731,1919.0
48.884759000,1871.0
48.901470269,1887.0
48.918181538,1845.0
48.934892807,1882.0
48.951604076,1816.0
48.968315344,1882.0
48.985026613,1858.0
49.001737882,1852.0
49.018449151,1870.0
49.035160420,1856.0
49.051871689,1922.0
49.068582958,1856.0
49.085294227,1902.0
49.102005496,1877.0
49.118716765,1892.0
49.135428034,1881.0
49.152139303,1949.0
49.168850572,1818.0
49.185561841,1939.0
49.202273110,1964.0
49.218984379,1851.0
49.235695648,1873.0
49.252406917,1855.0
49.269118186,1923.0
49.285829455,1878.0
49.302540724,1911.0
49.319251993,1948.0
49.335963262,1970.0
49.352674531,1970.0
49.369385800,1917.0
49.386097069,1950.0
49.402808338,1973.0
49.419519607,1942.0
49.436230876,1932.0
49.452942145,1997.0
49.469653414,2020.0
49.486364683,2002.0
49.503075952,1983.0
49.519787221,2131.0
49.536498490,1976.0
49.553209759,1992.0
49.569921028,1969.0
49.586632297,1958.0
49.603343566,1926.0
49.620054835,2058.0
49.636766104,1953.0
49.653477373,1964.0
49.670188642,1912.0
49.686899911,1913.0
49.703611180,1853.0
49.720322449,1926.0
49.737033717,1875.0
49.753744986,1858.0
49.770456255,1824.0
49.787167524,1861.0
49.803878793,1921.0
49.820590062,1968.0
49.837301331,1901.0
49.854012600,1921.0
49.870723869,1869.0
49.887435138,1911.0
49.904146407,1885.0
49.920857676,1891.0
49.937568945,1865.0
49.954280214,1898.0
49.970991483,1841.0
49.987702752,1897.0
50.004414021,1963.0
50.021125290,1959.0
50.037836559,1870.0
50.054547828,1921.0
50.071259097,1857.0
50.087970366,1971.0
50.104681635,1886.0
50.121392904,1981.0
50.138104173,1910.0
50.154815442,1923.0
50.171526711,1968.0
50.188237980,1928.0
50.204949249,1943.0
50.221660518,1991.0
50.238371787,2030.0
50.255083056,1983.0
50.271794325,1947.0
50.288505594,1972.0
50.305216863,1986.0
50.321928132,2113.0
50.338639401,2086.0
50.355350670,2234.0
50.372061939,2104.0
50.388773208,2210.0
50.405484477,2197.0
50.422195746,2328.0
50.438907015,2273.0
50.455618284,2183.0
50.472329553,2334.0
50.489040821,2337.0
50.505752090,2343.0
50.522463359,2309.0
50.539174628,2195.0
50.555885897,2263.0
50.572597166,2269.0
50.589308435,2110.0
50.606019704,2182.0
50.622730973,2175.0
50.639442242,2187.0
50.656153511,2103.0
50.672864780,2065.0
50.689576049,2120.0
50.706287318,2059.0
50.722998587,2020.0
50.739709856,2093.0
50.756421125,2118.0
50.773132394,2063.0
50.789843663,2001.0
50.806554932,1920.0
50.823266201,2024.0
50.839977470,1955.0
50.856688739,2053.0
50.873400008,2015.0
50.890111277,2045.0
50.906822546,2008.0
50.923533815,2093.0
50.940245084,2115.0
50.956956353,2038.0
50.973667622,2076.0
50.990378891,2097.0
51.007090160,2111.0
51.023801429,2100.0
51.040512698,2123.0
51.057223967,2083.0
51.073935236,2114.0
51.090646505,2107.0
51.107357774,2155.0
51.124069043,2100.0
51.140780312,2244.0
51.157491581,2230.0
51.174202850,2298.0
51.190914119,2244.0
51.207625388,2304.0
51.224336657,2276.0
51.241047926,2467.0
51.257759194,2387.0
51.274470463,2475.0
51.291181732,2593.0
51.307893001,2666.0
51.324604270,2679.0
51.341315539,2715.0
51.358026808,2884.0
51.374738077,2866.0
51.391449346,2950.0
51.408160615,3094.0
51.424871884,3246.0
51.441583153,3262.0
51.458294422,3389.0
51.475005691,3463.0
51.491716960,3545.0
51.508428229,3812.0
51.525139498,3942.0
51.541850767,4095.0
51.558562036,4192.0
51.575273305,4207.0
51.591984574,4336.0
51.608695843,4321.0
51.625407112,4492.0
51.642118381,4445.0
51.658829650,4291.0
51.675540919,4278.0
51.692252188,4202.0
51.708963457,4118.0
51.725674726,4039.0
51.742385995,3885.0
51.759097264,3719.0
51.775808533,3608.0
51.792519802,3448.0
51.809231071,3474.0
51.825942340,3168.0
51.842653609,3199.0
51.859364878,2999.0
51.876076147,2964.0
51.892787416,2772.0
51.909498685,2650.0
51.926209954,2612.0
51.942921223,2481.0
51.959632492,2413.0
51.976343761,2288.0
51.993055030,2293.0
52.009766299,2343.0
52.026477567,2240.0
52.043188836,2159.0
52.059900105,2210.0
52.076611374,2143.0
52.093322643,2030.0
52.110033912,2040.0
52.126745181,2069.0
52.143456450,2020.0
52.160167719,2037.0
52.176878988,2026.0
52.193590257,1971.0
52.210301526,2018.0
52.227012795,1945.0
52.243724064,1894.0
52.260435333,1970.0
52.277146602,1887.0
52.293857871,1870.0
52.310569140,1905.0
52.327280409,1906.0
52.343991678,1864.0
52.360702947,1902.0
52.377414216,1877.0
52.394125485,1927.0
52.410836754,2003.0
52.427548023,1858.0
52.444259292,1865.0
52.460970561,1916.0
52.477681830,1888.0
52.494393099,1893.0
52.511104368,1779.0
52.527815637,1885.0
52.544526906,1804.0
52.561238175,1900.0
52.577949444,1881.0
52.594660713,1942.0
52.611371982,1809.0
52.628083251,1886.0
52.644794520,1824.0
52.661505789,1910.0
52.678217058,1893.0
52.694928327,1862.0
52.711639596,1817.0
52.728350865,1818.0
52.745062134,1897.0
52.761773403,1808.0
52.778484671,1862.0
52.795195940,1671.0
52.811907209,1869.0
52.828618478,1853.0
52.845329747,1788.0
52.862041016,1783.0
52.878752285,1779.0
52.895463554,1733.0
52.912174823,1805.0
52.928886092,1834.0
52.945597361,1831.0
52.962308630,1834.0
52.979019899,1852.0
52.995731168,1805.0
53.012442437,1843.0
53.029153706,1890.0
53.045864975,1850.0
53.062576244,1785.0
53.079287513,1743.0
53.095998782,1781.0
53.112710051,1744.0
53.129421320,1737.0
53.146132589,1896.0
53.162843858,1756.0
53.179555127,1773.0
53.196266396,1779.0
53.212977665,1853.0
53.229688934,1682.0
53.246400203,1780.0
53.263111472,1745.0
53.279822741,1863.0
53.296534010,1755.0
53.313245279,1817.0
53.329956548,1803.0
53.346667817,1738.0
53.363379086,1813.0
53.380090355,1820.0
53.396801624,1773.0
53.413512893,1805.0
53.430224162,1694.0
53.446935431,1762.0
53.463646700,1718.0
53.480357969,1794.0
53.497069238,1803.0
53.513780507,1796.0
53.530491776,1746.0
53.547203044,1824.0
53.563914313,1759.0
53.580625582,1796.0
53.597336851,1826.0
53.614048120,1806.0
53.630759389,1743.0
53.647470658,1750.0
53.664181927,1767.0
53.680893196,1800.0
53.697604465,1765.0
53.714315734,1723.0
53.731027003,1743.0
53.747738272,1782.0
53.764449541,1802.0
53.781160810,1770.0
53.797872079,1750.0
53.814583348,1746.0
53.831294617,1857.0
53.848005886,1808.0
53.864717155,1795.0
53.881428424,1748.0
53.898139693,1820.0
53.914850962,1691.0
53.931562231,1776.0
53.948273500,1757.0
53.964984769,1779.0
53.981696038,1798.0
53.998407307,1774.0
54.015118576,1683.0
54.031829845,1808.0
54.048541114,1791.0
54.065252383,1652.0
54.081963652,1773.0
54.098674921,1739.0
54.115386190,1760.0
54.132097459,1710.0
54.148808728,1815.0
54.165519997,1698.0
54.182231266,1797.0
54.198942535,1862.0
54.215653804,1774.0
54.232365073,1802.0
54.249076342,1749.0
54.265787611,1780.0
54.282498880,1753.0
54.299210148,1799.0
54.315921417,1855.0
54.332632686,1848.0
54.349343955,1885.0
54.366055224,1823.0
54.382766493,1713.0
54.399477762,1773.0
54.416189031,1728.0
54.432900300,1842.0
54.449611569,1806.0
54.466322838,1771.0
54.483034107,1771.0
54.499745376,1815.0
54.516456645,1737.0
54.533167914,1700.0
54.549879183,1759.0
54.566590452,1779.0
54.583301721,1760.0
54.600012990,1764.0
54.616724259,1792.0
54.633435528,1837.0
54.650146797,1735.0
54.666858066,1837.0
54.683569335,1769.0
54.700280604,1769.0
54.716991873,1738.0
54.733703142,1691.0
54.750414411,1815.0
54.767125680,1828.0
54.783836949,1817.0
54.800548218,1833.0
54.817259487,1731.0
54.833970756,1738.0
54.850682025,1733.0
54.867393294,1754.0
54.884104563,1804.0
54.900815832,1715.0
54.917527101,1697.0
54.934238370,1793.0
54.950949639,1762.0
54.967660908,1779.0
54.984372177,1761.0
55.001083446,1744.0
55.017794715,1745.0
55.034505984,1742.0
55.051217253,1734.0
55.067928521,1833.0
55.084639790,1828.0
55.101351059,1695.0
55.118062328,1804.0
55.134773597,1714.0
55.151484866,1778.0
55.168196135,1792.0
55.184907404,1865.0
55.201618673,1805.0
55.218329942,1773.0
55.235041211,1728.0
55.251752480,1766.0
55.268463749,1760.0
55.285175018,1821.0
55.301886287,1859.0
55.318597556,1645.0
55.335308825,1701.0
55.352020094,1774.0
55.368731363,1744.0
55.385442632,1783.0
55.402153901,1695.0
55.418865170,1730.0
55.435576439,1742.0
55.452287708,1798.0
55.468998977,1812.0
55.485710246,1815.0
55.502421515,1706.0
55.519132784,1792.0
55.535844053,1809.0
55.552555322,1810.0
55.569266591,1830.0
55.585977860,1782.0
55.602689129,1767.0
55.619400398,1779.0
55.636111667,1825.0
55.652822936,1761.0
55.669534205,1778.0
55.686245474,1749.0
55.702956743,1694.0
55.719668012,1731.0
55.736379281,1754.0
55.753090550,1863.0
55.769801819,1687.0
55.786513088,1823.0
55.803224357,1745.0
55.819935625,1759.0
55.836646894,1759.0
55.853358163,1699.0
55.870069432,1732.0
55.886780701,1792.0
55.903491970,1788.0
55.920203239,1804.0
55.936914508,1706.0
55.953625777,1790.0
55.970337046,1772.0
55.987048315,1765.0
56.003759584,1776.0
56.020470853,1765.0
56.037182122,1739.0
56.053893391,1690.0
56.070604660,1733.0
56.087315929,1832.0
56.104027198,1798.0
56.120738467,1714.0
56.137449736,1778.0
56.154161005,1859.0
56.170872274,1733.0
56.187583543,1758.0
56.204294812,1712.0
56.221006081,1759.0
56.237717350,1741.0
56.254428619,1763.0
56.271139888,1781.0
56.287851157,1689.0
56.304562426,1700.0
56.321273695,1787.0
56.337984964,1791.0
56.354696233,1683.0
56.371407502,1756.0
56.388118771,1767.0
56.404830040,1727.0
56.421541309,1747.0
56.438252578,1770.0
56.454963847,1812.0
56.471675116,1805.0
56.488386385,1766.0
56.505097654,1821.0
56.521808923,1752.0
56.538520192,1695.0
56.555231461,1746.0
56.571942730,1695.0
56.588653998,1747.0
56.605365267,1822.0
56.622076536,1790.0
56.638787805,1752.0
56.655499074,1790.0
56.672210343,1802.0
56.688921612,1725.0
56.705632881,1733.0
56.722344150,1691.0
56.739055419,1716.0
56.755766688,1772.0
56.772477957,1746.0
56.789189226,1744.0
56.805900495,1840.0
56.822611764,1710.0
56.839323033,1821.0
56.856034302,1755.0
56.872745571,1750.0
56.889456840,1712.0
56.906168109,1737.0
56.922879378,1747.0
56.939590647,1752.0
56.956301916,1800.0
56.973013185,1746.0
56.989724454,1715.0
57.006435723,1765.0
57.023146992,1663.0
57.039858261,1742.0
57.056569530,1714.0
57.073280799,1732.0
57.089992068,1804.0
57.106703337,1722.0
57.123414606,1743.0
57.140125875,1740.0
57.156837144,1789.0
57.173548413,1758.0
57.190259682,1770.0
57.206970951,1767.0
57.223682220,1665.0
57.240393489,1700.0
57.257104758,1768.0
57.273816027,1771.0
57.290527296,1779.0
57.307238565,1880.0
57.323949834,1788.0
57.340661102,1757.0
57.357372371,1724.0
57.374083640,1715.0
57.390794909,1790.0
57.407506178,1759.0
57.424217447,1743.0
57.440928716,1747.0
57.457639985,1772.0
57.474351254,1737.0
57.491062523,1755.0
57.507773792,1785.0
57.524485061,1713.0
57.541196330,1742.0
57.557907599,1677.0
57.574618868,1782.0
57.591330137,1840.0
57.608041406,1770.0
57.624752675,1785.0
57.641463944,1770.0
57.658175213,1749.0
57.674886482,1695.0
57.691597751,1772.0
57.708309020,1732.0
57.725020289,1788.0
57.741731558,1717.0
57.758442827,1725.0
57.775154096,1707.0
57.791865365,1716.0
57.808576634,1752.0
57.825287903,1676.0
57.841999172,1859.0
57.858710441,1809.0
57.875421710,1730.0
57.892132979,1681.0
57.908844248,1799.0
57.925555517,1699.0
57.942266786,1818.0
57.958978055,1750.0
57.975689324,1769.0
57.992400593,1801.0
58.009111862,1796.0
58.025823131,1768.0
58.042534400,1802.0
58.059245669,1670.0
58.075956938,1742.0
58.092668207,1729.0
58.109379475,1710.0
58.126090744,1776.0
58.142802013,1800.0
58.159513282,1726.0
58.176224551,1778.0
58.192935820,1720.0
58.209647089,1707.0
58.226358358,1728.0
58.243069627,1802.0
58.259780896,1732.0
58.276492165,1698.0
58.293203434,1741.0
58.309914703,1697.0
58.326625972,1780.0
58.343337241,1826.0
58.360048510,1825.0
58.376759779,1787.0
58.393471048,1691.0
58.410182317,1723.0
58.426893586,1747.0
58.443604855,1791.0
58.460316124,1725.0
58.477027393,1737.0
58.493738662,1763.0
58.510449931,1765.0
58.527161200,1799.0
58.543872469,1759.0
58.560583738,1741.0
58.577295007,1727.0
58.594006276,1731.0
58.610717545,1718.0
58.627428814,1727.0
58.644140083,1781.0
58.660851352,1798.0
58.677562621,1793.0
58.694273890,1713.0
58.710985159,1792.0
58.727696428,1788.0
58.744407697,1793.0
58.761118966,1701.0
58.777830235,1770.0
58.794541504,1758.0
58.811252773,1770.0
58.827964042,1783.0
58.844675311,1804.0
58.861386579,1675.0
58.878097848,1790.0
58.894809117,1781.0
58.911520386,1723.0
58.928231655,1736.0
58.944942924,1709.0
58.961654193,1786.0
58.978365462,1704.0
58.995076731,1785.0
59.011788000,1724.0
59.028499269,1795.0
59.045210538,1765.0
59.061921807,1742.0
59.078633076,1760.0
59.095344345,1786.0
59.112055614,1854.0
59.128766883,1811.0
59.145478152,1798.0
59.162189421,1775.0
59.178900690,1756.0
59.195611959,1772.0
59.212323228,1676.0
59.229034497,1796.0
59.245745766,1740.0
59.262457035,1753.0
59.279168304,1764.0
59.295879573,1749.0
59.312590842,1771.0
59.329302111,1795.0
59.346013380,1784.0
59.362724649,1793.0
59.379435918,1773.0
59.396147187,1715.0
59.412858456,1762.0
59.429569725,1780.0
59.446280994,1823.0
59.462992263,1746.0
59.479703532,1763.0
59.496414801,1793.0
59.513126070,1789.0
59.529837339,1747.0
59.546548608,1788.0
59.563259877,1711.0
59.579971146,1723.0
59.596682415,1769.0
59.613393684,1765.0
59.630104952,1764.0
59.646816221,1795.0
59.663527490,1645.0
59.680238759,1817.0
59.696950028,1764.0
59.713661297,1789.0
59.730372566,1790.0
59.747083835,1863.0
59.763795104,1737.0
59.780506373,1844.0
59.797217642,1741.0
59.813928911,1758.0
59.830640180,1795.0
59.847351449,1704.0
59.864062718,1709.0
59.880773987,1694.0
59.897485256,1763.0
59.914196525,1672.0
59.930907794,1774.0
59.947619063,1771.0
59.964330332,1744.0
59.981041601,1777.0
59.997752870,1845.0
60.014464139,1772.0
60.031175408,1759.0
60.047886677,1782.0
60.064597946,1713.0
60.081309215,1824.0
60.098020484,1789.0
60.114731753,1788.0
60.131443022,1789.0
60.148154291,1730.0
60.164865560,1808.0
60.181576829,1788.0
60.198288098,1734.0
60.214999367,1782.0
60.231710636,1754.0
60.248421905,1742.0
60.265133174,1812.0
60.281844443,1823.0
60.298555712,1811.0
60.315266981,1891.0
60.331978250,1779.0
60.348689519,1811.0
60.365400788,1734.0
60.382112056,1778.0
60.398823325,1739.0
60.415534594,1752.0
60.432245863,1806.0
60.448957132,1795.0
60.465668401,1810.0
60.482379670,1754.0
60.499090939,1794.0
60.515802208,1778.0
60.532513477,1784.0
60.549224746,1878.0
60.565936015,1750.0
60.582647284,1735.0
60.599358553,1769.0
60.616069822,1757.0
60.632781091,1831.0
60.649492360,1763.0
60.666203629,1774.0
60.682914898,1704.0
60.699626167,1825.0
60.716337436,1835.0
60.733048705,1828.0
60.749759974,1798.0
60.766471243,1856.0
60.783182512,1787.0
60.799893781,1756.0
60.816605050,1761.0
60.833316319,1815.0
60.850027588,1836.0
60.866738857,1801.0
60.883450126,1765.0
60.900161395,1816.0
60.916872664,1846.0
60.933583933,1844.0
60.950295202,1775.0
60.967006471,1810.0
60.983717740,1848.0
61.000429009,1835.0
61.017140278,1761.0
61.033851547,1800.0
61.050562816,1815.0
61.067274085,1831.0
61.083985354,1824.0
61.100696623,1767.0
61.117407892,1826.0
61.134119161,1798.0
61.150830429,1787.0
61.167541698,1870.0
61.184252967,1740.0
61.200964236,1835.0
61.217675505,1832.0
61.234386774,1844.0
61.251098043,1777.0
61.267809312,1752.0
61.284520581,1740.0
61.301231850,1795.0
61.317943119,1780.0
61.334654388,1801.0
61.351365657,1818.0
61.368076926,1883.0
61.384788195,1873.0
61.401499464,1796.0
61.418210733,1771.0
61.434922002,1788.0
61.451633271,1868.0
61.468344540,1817.0
61.485055809,1766.0
61.501767078,1781.0
61.518478347,1741.0
61.535189616,1867.0
61.551900885,1875.0
61.568612154,1926.0
61.585323423,1820.0
61.602034692,1765.0
61.618745961,1814.0
61.635457230,1850.0
61.652168499,1839.0
61.668879768,1818.0
61.685591037,1785.0
61.702302306,1853.0
61.719013575,1819.0
61.735724844,1804.0
61.752436113,1873.0
61.769147382,1807.0
61.785858651,1849.0
61.802569920,1821.0
61.819281189,1847.0
61.835992458,1918.0
61.852703727,1801.0
61.869414996,1891.0
61.886126265,1766.0
61.902837533,1775.0
61.919548802,1863.0
61.936260071,1832.0
61.952971340,1719.0
61.969682609,1875.0
61.986393878,1847.0
62.003105147,1894.0
62.019816416,1809.0
62.036527685,1819.0
62.053238954,1827.0
62.069950223,1865.0
62.086661492,1886.0
62.103372761,1857.0
62.120084030,1832.0
62.136795299,1842.0
62.153506568,1795.0
62.170217837,1809.0
62.186929106,1815.0
62.203640375,1917.0
62.220351644,1803.0
62.237062913,1889.0
62.253774182,1823.0
62.270485451,1865.0
62.287196720,1738.0
62.303907989,1899.0
62.320619258,1873.0
62.337330527,1876.0
62.354041796,1855.0
62.370753065,1823.0
62.387464334,1896.0
62.404175603,1827.0
62.420886872,1765.0
62.437598141,1763.0
62.454309410,1885.0
62.471020679,1771.0
62.487731948,1789.0
62.504443217,1863.0
62.521154486,1943.0
62.537865755,1882.0
62.554577024,1882.0
62.571288293,1814.0
62.587999562,1893.0
62.604710831,1893.0
62.621422100,1898.0
62.638133369,1829.0
62.654844638,1849.0
62.671555906,1821.0
62.688267175,1865.0
62.704978444,1783.0
62.721689713,1912.0
62.738400982,1903.0
62.755112251,1802.0
62.771823520,1922.0
62.788534789,1812.0
62.805246058,1921.0
62.821957327,1969.0
62.838668596,1870.0
62.855379865,1862.0
62.872091134,1872.0
62.888802403,1810.0
62.905513672,1806.0
62.922224941,1888.0
62.938936210,1827.0
62.955647479,1918.0
62.972358748,1840.0
62.989070017,1833.0
63.005781286,1903.0
63.022492555,1947.0
63.039203824,1809.0
63.055915093,1864.0
63.072626362,1826.0
63.089337631,1965.0
63.106048900,1913.0
63.122760169,1913.0
63.139471438,1896.0
63.156182707,1886.0
63.172893976,1889.0
63.189605245,1942.0
63.206316514,1944.0
63.223027783,1981.0
63.239739052,1945.0
63.256450321,1872.0
63.273161590,1850.0
63.289872859,1878.0
63.306584128,1876.0
63.323295397,1851.0
63.340006666,1911.0
63.356717935,1858.0
63.373429204,1950.0
63.390140473,1978.0
63.406851742,1914.0
63.423563010,1885.0
63.440274279,1882.0
63.456985548,1844.0
63.473696817,1806.0
63.490408086,1858.0
63.507119355,1953.0
63.523830624,1927.0
63.540541893,1813.0
63.557253162,1876.0
63.573964431,1907.0
63.590675700,1834.0
63.607386969,1937.0
63.624098238,1882.0
63.640809507,1850.0
63.657520776,1888.0
63.674232045,1899.0
63.690943314,1880.0
63.707654583,1886.0
63.724365852,1930.0
63.741077121,1998.0
63.757788390,1901.0
63.774499659,1902.0
63.791210928,1936.0
63.807922197,1939.0
63.824633466,1855.0
63.841344735,1906.0
63.858056004,1876.0
63.874767273,2016.0
63.891478542,1871.0
63.908189811,1856.0
63.924901080,1836.0
63.941612349,1994.0
63.958323618,1962.0
63.975034887,1949.0
63.991746156,1931.0
64.008457425,1959.0
64.025168694,1882.0
64.041879963,1891.0
64.058591232,1946.0
64.075302501,1955.0
64.092013770,1829.0
64.108725039,1927.0
64.125436308,1859.0
64.142147577,1933.0
64.158858846,1980.0
64.175570115,1921.0
64.192281383,1935.0
64.208992652,1917.0
64.225703921,1931.0
64.242415190,1878.0
64.259126459,1969.0
64.275837728,1960.0
64.292548997,1951.0
64.309260266,1956.0
64.325971535,1913.0
64.342682804,1830.0
64.359394073,1962.0
64.376105342,1960.0
64.392816611,1939.0
64.409527880,1876.0
64.426239149,1984.0
64.442950418,1920.0
64.459661687,1996.0
64.476372956,1975.0
64.493084225,1971.0
64.509795494,2006.0
64.526506763,1860.0
64.543218032,2009.0
64.559929301,1968.0
64.576640570,1930.0
64.593351839,1948.0
64.610063108,1942.0
64.626774377,1945.0
64.643485646,1968.0
64.660196915,1849.0
64.676908184,2040.0
64.693619453,1910.0
64.710330722,1914.0
64.727041991,1870.0
64.743753260,1923.0
64.760464529,1912.0
64.777175798,1920.0
64.793887067,1917.0
64.810598336,1948.0
64.827309605,1950.0
64.844020874,1934.0
64.860732143,1933.0
64.877443412,1979.0
64.894154681,1909.0
64.910865950,1955.0
64.927577219,1941.0
64.944288487,1921.0
64.960999756,1976.0
64.977711025,1967.0
64.994422294,1910.0
65.011133563,1919.0
65.027844832,1901.0
65.044556101,1912.0
65.061267370,1910.0
65.077978639,2010.0
65.094689908,1945.0
65.111401177,2002.0
65.128112446,1979.0
65.144823715,2064.0
65.161534984,2033.0
65.178246253,2029.0
65.194957522,2011.0
65.211668791,1952.0
65.228380060,2017.0
65.245091329,1917.0
65.261802598,1987.0
65.278513867,1935.0
65.295225136,1915.0
65.311936405,1959.0
65.328647674,1942.0
65.345358943,1965.0
65.362070212,1954.0
65.378781481,1952.0
65.395492750,1929.0
65.412204019,1910.0
65.428915288,1855.0
65.445626557,1913.0
65.462337826,1934.0
65.479049095,1932.0
65.495760364,2039.0
65.512471633,1964.0
65.529182902,2064.0
65.545894171,1984.0
65.562605440,1918.0
65.579316709,1981.0
65.596027978,2001.0
65.612739247,1995.0
65.629450516,1934.0
65.646161785,2036.0
65.662873054,1887.0
65.679584323,1988.0
65.696295592,2053.0
65.713006860,1951.0
65.729718129,1997.0
65.746429398,2014.0
65.763140667,2046.0
65.779851936,1957.0
65.796563205,1912.0
65.813274474,1985.0
65.829985743,1951.0
65.846697012,1963.0
65.863408281,1978.0
65.880119550,2022.0
65.896830819,2009.0
65.913542088,1923.0
65.930253357,2033.0
65.946964626,1986.0
65.963675895,2105.0
65.980387164,1970.0
65.997098433,2135.0
66.013809702,1989.0
66.030520971,1996.0
66.047232240,2021.0
66.063943509,2016.0
66.080654778,1998.0
66.097366047,1985.0
66.114077316,2056.0
66.130788585,2021.0
66.147499854,1968.0
66.164211123,2075.0
66.180922392,2019.0
66.197633661,1914.0
66.214344930,1956.0
66.231056199,1957.0
66.247767468,2007.0
66.264478737,1976.0
66.281190006,2001.0
66.297901275,2036.0
66.314612544,1977.0
66.331323813,1944.0
66.348035082,1987.0
66.364746351,1962.0
66.381457620,1974.0
66.398168889,1995.0
66.414880158,1953.0
66.431591427,2005.0
66.448302696,2054.0
66.465013964,1979.0
66.481725233,1927.0
66.498436502,2040.0
66.515147771,1991.0
66.531859040,1998.0
66.548570309,2006.0
66.565281578,2052.0
66.581992847,2037.0
66.598704116,2063.0
66.615415385,1929.0
66.632126654,1951.0
66.648837923,1993.0
66.665549192,1993.0
66.682260461,2049.0
66.698971730,1901.0
66.715682999,1998.0
66.732394268,2016.0
66.749105537,1940.0
66.765816806,2075.0
66.782528075,2011.0
66.799239344,1913.0
66.815950613,2119.0
66.832661882,2034.0
66.849373151,2048.0
66.866084420,1953.0
66.882795689,2037.0
66.899506958,2053.0
66.916218227,2006.0
66.932929496,2015.0
66.949640765,2050.0
66.966352034,1995.0
66.983063303,1927.0
66.999774572,2011.0
67.016485841,2079.0
67.033197110,2025.0
67.049908379,1988.0
67.066619648,1978.0
67.083330917,2037.0
67.100042186,2088.0
67.116753455,2033.0
67.133464724,2050.0
67.150175993,1971.0
67.166887262,2002.0
67.183598531,1937.0
67.200309800,1999.0
67.217021069,1986.0
67.233732337,1986.0
67.250443606,2039.0
67.267154875,2035.0
67.283866144,1992.0
67.300577413,2000.0
67.317288682,2089.0
67.333999951,2013.0
67.350711220,2005.0
67.367422489,1966.0
67.384133758,2036.0
67.400845027,1976.0
67.417556296,2011.0
67.434267565,1984.0
67.450978834,2034.0
67.467690103,2036.0
67.484401372,2030.0
67.501112641,1964.0
67.517823910,1977.0
67.534535179,2058.0
67.551246448,2042.0
67.567957717,2091.0
67.584668986,1955.0
67.601380255,2001.0
67.618091524,1951.0
67.634802793,2066.0
67.651514062,1937.0
67.668225331,2068.0
67.684936600,1987.0
67.701647869,1968.0
67.718359138,1960.0
67.735070407,2010.0
67.751781676,2095.0
67.768492945,2075.0
67.785204214,1994.0
67.801915483,2064.0
67.818626752,1976.0
67.835338021,1949.0
67.852049290,1990.0
67.868760559,1988.0
67.885471828,1951.0
67.902183097,1946.0
67.918894366,2032.0
67.935605635,2060.0
67.952316904,1973.0
67.969028173,2063.0
67.985739441,2041.0
68.002450710,2104.0
68.019161979,2050.0
68.035873248,2089.0
68.052584517,1968.0
68.069295786,2028.0
68.086007055,2055.0
68.102718324,1998.0
68.119429593,1945.0
68.136140862,1938.0
68.152852131,2031.0
68.169563400,1909.0
68.186274669,2018.0
68.202985938,2035.0
68.219697207,2010.0
68.236408476,2024.0
68.253119745,1940.0
68.269831014,1990.0
68.286542283,2123.0
68.303253552,1953.0
68.319964821,1993.0
68.336676090,2008.0
68.353387359,2098.0
68.370098628,1859.0
68.386809897,1999.0
68.403521166,1909.0
68.420232435,2033.0
68.436943704,2041.0
68.453654973,1949.0
68.470366242,2004.0
68.487077511,1996.0
68.503788780,1932.0
68.520500049,1958.0
68.537211318,2100.0
68.553922587,2077.0
68.570633856,2023.0
68.587345125,2076.0
68.604056394,1939.0
68.620767663,1923.0
68.637478932,1985.0
68.654190201,2000.0
68.670901470,1933.0
68.687612739,1951.0
68.704324008,2012.0
68.721035277,2018.0
68.737746546,2049.0
68.754457814,1991.0
68.771169083,2068.0
68.787880352,2055.0
68.804591621,2075.0
68.821302890,1956.0
68.838014159,2103.0
68.854725428,2046.0
68.871436697,2077.0
68.888147966,2009.0
68.904859235,1944.0
68.921570504,1910.0
68.938281773,2019.0
68.954993042,1931.0
68.971704311,1991.0
68.988415580,1972.0
69.005126849,2000.0
69.021838118,2054.0
69.038549387,2008.0
69.055260656,1908.0
69.071971925,2003.0
69.088683194,1952.0
69.105394463,1958.0
69.122105732,2032.0
69.138817001,1989.0
69.155528270,2093.0
69.172239539,2009.0
69.188950808,1989.0
69.205662077,1976.0
69.222373346,1929.0
69.239084615,2002.0
69.255795884,2052.0
69.272507153,1900.0
69.289218422,2011.0
69.305929691,1946.0
69.322640960,1953.0
69.339352229,1991.0
69.356063498,1948.0
69.372774767,1919.0
69.389486036,1977.0
69.406197305,2014.0
69.422908574,1924.0
69.439619843,2018.0
69.456331112,2017.0
69.473042381,1944.0
69.489753650,1906.0
69.506464919,1989.0
69.523176187,2004.0
69.539887456,1897.0
69.556598725,1905.0
69.573309994,1988.0
69.590021263,1931.0
69.606732532,1943.0
69.623443801,1902.0
69.640155070,1939.0
69.656866339,2016.0
69.673577608,1966.0
69.690288877,1969.0
69.707000146,1902.0
69.723711415,2044.0
69.740422684,2013.0
69.757133953,1928.0
69.773845222,2037.0
69.790556491,1906.0
69.807267760,1988.0
69.823979029,1982.0
69.840690298,1949.0
69.857401567,1925.0
69.874112836,1926.0
69.890824105,1979.0
69.907535374,1962.0
69.924246643,1900.0
69.940957912,1995.0
69.957669181,1919.0
69.974380450,1915.0
69.991091719,1919.0
70.007802988,1913.0
70.024514257,1968.0
70.041225526,1960.0
70.057936795,1924.0
70.074648064,1869.0
70.091359333,1942.0
70.108070602,1962.0
70.124781871,1965.0
70.141493140,1901.0
70.158204409,1954.0
70.174915678,1900.0
70.191626947,1984.0
70.208338216,1955.0
70.225049485,1888.0
70.241760754,1893.0
70.258472023,2025.0
70.275183291,2056.0
70.291894560,1910.0
70.308605829,1957.0
70.325317098,1964.0
70.342028367,1836.0
70.358739636,2032.0
70.375450905,1957.0
70.392162174,1977.0
70.408873443,1909.0
70.425584712,1936.0
70.442295981,1926.0
70.459007250,1997.0
70.475718519,1898.0
70.492429788,1934.0
70.509141057,1894.0
70.525852326,2012.0
70.542563595,1872.0
70.559274864,1865.0
70.575986133,1862.0
70.592697402,1866.0
70.609408671,1883.0
70.626119940,1977.0
70.642831209,1943.0
70.659542478,1912.0
70.676253747,1905.0
70.692965016,1977.0
70.709676285,1994.0
70.726387554,1956.0
70.743098823,1925.0
70.759810092,1910.0
70.776521361,1905.0
70.793232630,1926.0
70.809943899,1884.0
70.826655168,1977.0
70.843366437,1952.0
70.860077706,1960.0
70.876788975,2011.0
70.893500244,1960.0
70.910211513,1945.0
70.926922782,1955.0
70.943634051,1856.0
70.960345320,1845.0
70.977056589,1878.0
70.993767858,1938.0
71.010479127,1936.0
71.027190396,1881.0
71.043901664,1951.0
71.060612933,1892.0
71.077324202,1907.0
71.094035471,1904.0
71.110746740,1899.0
71.127458009,1949.0
71.144169278,1871.0
71.160880547,1849.0
71.177591816,1900.0
71.194303085,1934.0
71.211014354,1942.0
71.227725623,1896.0
71.244436892,1874.0
71.261148161,1895.0
71.277859430,1833.0
71.294570699,1865.0
71.311281968,1916.0
71.327993237,1866.0
71.344704506,1911.0
71.361415775,1877.0
71.378127044,1886.0
71.394838313,1862.0
71.411549582,1936.0
71.428260851,1885.0
71.444972120,1907.0
71.461683389,1861.0
71.478394658,1884.0
71.495105927,1828.0
71.511817196,1944.0
71.528528465,1866.0
71.545239734,1883.0
71.561951003,1887.0
71.578662272,1904.0
71.595373541,1897.0
71.612084810,1869.0
71.628796079,1938.0
71.645507348,1918.0
71.662218617,1854.0
71.678929886,1887.0
71.695641155,1958.0
71.712352424,1863.0
71.729063693,1950.0
71.745774962,1856.0
71.762486231,1902.0
71.779197500,1878.0
71.795908768,1872.0
71.812620037,1944.0
71.829331306,1957.0
71.846042575,1888.0
71.862753844,1911.0
71.879465113,1869.0
71.896176382,1951.0
71.912887651,1854.0
71.929598920,1847.0
71.946310189,1864.0
71.963021458,1976.0
71.979732727,1860.0
71.996443996,1801.0
72.013155265,1944.0
72.029866534,1929.0
72.046577803,1797.0
72.063289072,1861.0
72.080000341,1916.0
72.096711610,1921.0
72.113422879,1880.0
72.130134148,1810.0
72.146845417,1882.0
72.163556686,1888.0
72.180267955,1724.0
72.196979224,1825.0
72.213690493,1837.0
72.230401762,1807.0
72.247113031,1928.0
72.263824300,1888.0
72.280535569,1870.0
72.297246838,1827.0
72.313958107,1787.0
72.330669376,1835.0
72.347380645,1943.0
72.364091914,1916.0
72.380803183,1836.0
72.397514452,1919.0
72.414225721,1889.0
72.430936990,1815.0
72.447648259,1820.0
72.464359528,1851.0
72.481070797,1854.0
72.497782066,1795.0
72.514493335,1811.0
72.531204604,1814.0
72.547915873,1874.0
72.564627141,1800.0
72.581338410,1882.0
72.598049679,1832.0
72.614760948,1866.0
72.631472217,1812.0
72.648183486,1814.0
72.664894755,1757.0
72.681606024,1910.0
72.698317293,1858.0
72.715028562,1818.0
72.731739831,1860.0
72.748451100,1870.0
72.765162369,1802.0
72.781873638,1882.0
72.798584907,1818.0
72.815296176,1847.0
72.832007445,1858.0
72.848718714,1809.0
72.865429983,1809.0
72.882141252,1770.0
72.898852521,1874.0
72.915563790,1780.0
72.932275059,1834.0
72.948986328,1844.0
72.965697597,1816.0
72.982408866,1844.0
72.999120135,1764.0
73.015831404,1887.0
73.032542673,1811.0
73.049253942,1901.0
73.065965211,1800.0
73.082676480,1709.0
73.099387749,1819.0
73.116099018,1816.0
73.132810287,1800.0
73.149521556,1814.0
73.166232825,1804.0
73.182944094,1812.0
73.199655363,1797.0
73.216366632,1878.0
73.233077901,1807.0
73.249789170,1857.0
73.266500439,1836.0
73.283211708,1828.0
73.299922977,1867.0
73.316634245,1822.0
73.333345514,1764.0
73.350056783,1876.0
73.366768052,1844.0
73.383479321,1831.0
73.400190590,1813.0
73.416901859,1838.0
73.433613128,1817.0
73.450324397,1747.0
73.467035666,1814.0
73.483746935,1746.0
73.500458204,1794.0
73.517169473,1815.0
73.533880742,1919.0
73.550592011,1843.0
73.567303280,1713.0
73.584014549,1827.0
73.600725818,1883.0
73.617437087,1798.0
73.634148356,1800.0
73.650859625,1803.0
73.667570894,1910.0
73.684282163,1836.0
73.700993432,1759.0
73.717704701,1782.0
73.734415970,1729.0
73.751127239,1713.0
73.767838508,1807.0
73.784549777,1805.0
73.801261046,1785.0
73.817972315,1784.0
73.834683584,1827.0
73.851394853,1824.0
73.868106122,1784.0
73.884817391,1797.0
73.901528660,1753.0
73.918239929,1854.0
73.934951198,1702.0
73.951662467,1780.0
73.968373736,1825.0
73.985085005,1715.0
74.001796274,1771.0
74.018507543,1771.0
74.035218812,1779.0
74.051930081,1788.0
74.068641350,1815.0
74.085352618,1740.0
74.102063887,1729.0
74.118775156,1803.0
74.135486425,1707.0
74.152197694,1777.0
74.168908963,1852.0
74.185620232,1767.0
74.202331501,1743.0
74.219042770,1751.0
74.235754039,1808.0
74.252465308,1737.0
74.269176577,1742.0
74.285887846,1819.0
74.302599115,1730.0
74.319310384,1725.0
74.336021653,1739.0
74.352732922,1700.0
74.369444191,1725.0
74.386155460,1727.0
74.402866729,1695.0
74.419577998,1657.0
74.436289267,1747.0
74.453000536,1819.0
74.469711805,1714.0
74.486423074,1715.0
74.503134343,1781.0
74.519845612,1727.0
74.536556881,1735.0
74.553268150,1804.0
74.569979419,1769.0
74.586690688,1687.0
74.603401957,1727.0
74.620113226,1752.0
74.636824495,1786.0
74.653535764,1792.0
74.670247033,1684.0
74.686958302,1817.0
74.703669571,1676.0
74.720380840,1764.0
74.737092109,1677.0
74.753803378,1776.0
74.770514647,1696.0
74.787225916,1818.0
74.803937185,1753.0
74.820648454,1801.0
74.837359722,1705.0
74.854070991,1769.0
74.870782260,1729.0
74.887493529,1784.0
74.904204798,1794.0
74.920916067,1778.0
74.937627336,1728.0
74.954338605,1809.0
74.971049874,1726.0
74.987761143,1771.0
75.004472412,1762.0
75.021183681,1777.0
75.037894950,1828.0
75.054606219,1735.0
75.071317488,1647.0
75.088028757,1697.0
75.104740026,1740.0
75.121451295,1829.0
75.138162564,1785.0
75.154873833,1815.0
75.171585102,1712.0
75.188296371,1723.0
75.205007640,1698.0
75.221718909,1838.0
75.238430178,1851.0
75.255141447,1759.0
75.271852716,1775.0
75.288563985,1784.0
75.305275254,1829.0
75.321986523,1785.0
75.338697792,1803.0
75.355409061,1841.0
75.372120330,1839.0
75.388831599,1814.0
75.405542868,1780.0
75.422254137,1806.0
75.438965406,1830.0
75.455676675,1894.0
75.472387944,1839.0
75.489099213,1815.0
75.505810482,1901.0
75.522521751,1929.0
75.539233020,1883.0
75.555944289,1880.0
75.572655558,1852.0
75.589366827,1935.0
75.606078095,1861.0
75.622789364,1920.0
75.639500633,1918.0
75.656211902,1966.0
75.672923171,1985.0
75.689634440,1942.0
75.706345709,1994.0
75.723056978,2025.0
75.739768247,1988.0
75.756479516,1937.0
75.773190785,1898.0
75.789902054,2054.0
75.806613323,2030.0
75.823324592,2159.0
75.840035861,2124.0
75.856747130,2103.0
75.873458399,2088.0
75.890169668,2197.0
75.906880937,2235.0
75.923592206,2244.0
75.940303475,2237.0
75.957014744,2314.0
75.973726013,2171.0
75.990437282,2161.0
76.007148551,2313.0
76.023859820,2303.0
76.040571089,2248.0
76.057282358,2250.0
76.073993627,2265.0
76.090704896,2196.0
76.107416165,2216.0
76.124127434,2196.0
76.140838703,2175.0
76.157549972,2286.0
76.174261241,2223.0
76.190972510,2219.0
76.207683779,2201.0
76.224395048,2160.0
76.241106317,2022.0
76.257817586,2009.0
76.274528855,2115.0
76.291240124,2004.0
76.307951393,1987.0
76.324662662,2028.0
76.341373931,1951.0
76.358085199,1875.0
76.374796468,1959.0
76.391507737,1857.0
76.408219006,1925.0
76.424930275,1819.0
76.441641544,1865.0
76.458352813,1763.0
76.475064082,1818.0
76.491775351,1854.0
76.508486620,1769.0
76.525197889,1748.0
76.541909158,1837.0
76.558620427,1799.0
76.575331696,1706.0
76.592042965,1721.0
76.608754234,1684.0
76.625465503,1684.0
76.642176772,1770.0
76.658888041,1690.0
76.675599310,1702.0
76.692310579,1731.0
76.709021848,1660.0
76.725733117,1624.0
76.742444386,1744.0
76.759155655,1591.0
76.775866924,1631.0
76.792578193,1609.0
76.809289462,1620.0
76.826000731,1687.0
76.842712000,1697.0
76.859423269,1564.0
76.876134538,1666.0
76.892845807,1694.0
76.909557076,1590.0
76.926268345,1681.0
76.942979614,1684.0
76.959690883,1717.0
76.976402152,1703.0
76.993113421,1609.0
77.009824690,1637.0
77.026535959,1664.0
77.043247228,1536.0
77.059958497,1617.0
77.076669766,1658.0
77.093381035,1623.0
77.110092304,1673.0
77.126803572,1594.0
77.143514841,1654.0
77.160226110,1698.0
77.176937379,1700.0
77.193648648,1623.0
77.210359917,1643.0
77.227071186,1637.0
77.243782455,1593.0
77.260493724,1618.0
77.277204993,1675.0
77.293916262,1664.0
77.310627531,1618.0
77.327338800,1662.0
77.344050069,1615.0
77.360761338,1588.0
77.377472607,1591.0
77.394183876,1642.0
77.410895145,1665.0
77.427606414,1678.0
77.444317683,1581.0
77.461028952,1614.0
77.477740221,1673.0
77.494451490,1683.0
77.511162759,1566.0
77.527874028,1630.0
77.544585297,1628.0
77.561296566,1595.0
77.578007835,1591.0
77.594719104,1619.0
77.611430373,1587.0
77.628141642,1670.0
77.644852911,1579.0
77.661564180,1644.0
77.678275449,1679.0
77.694986718,1554.0
77.711697987,1596.0
77.728409256,1609.0
77.745120525,1560.0
77.761831794,1595.0
77.778543063,1610.0
77.795254332,1559.0
77.811965601,1571.0
77.828676870,1611.0
77.845388139,1549.0
77.862099408,1507.0
77.878810676,1595.0
77.895521945,1587.0
77.912233214,1668.0
77.928944483,1565.0
77.945655752,1589.0
77.962367021,1621.0
77.979078290,1583.0
77.995789559,1602.0
78.012500828,1571.0
78.029212097,1561.0
78.045923366,1575.0
78.062634635,1494.0
78.079345904,1597.0
78.096057173,1629.0
78.112768442,1511.0
78.129479711,1556.0
78.146190980,1576.0
78.162902249,1600.0
78.179613518,1535.0
78.196324787,1549.0
78.213036056,1547.0
78.229747325,1548.0
78.246458594,1519.0
78.263169863,1579.0
78.279881132,1594.0
78.296592401,1486.0
78.313303670,1528.0
78.330014939,1613.0
78.346726208,1551.0
78.363437477,1549.0
78.380148746,1553.0
78.396860015,1535.0
78.413571284,1578.0
78.430282553,1568.0
78.446993822,1534.0
78.463705091,1556.0
78.480416360,1599.0
78.497127629,1494.0
78.513838898,1580.0
78.530550167,1581.0
78.547261436,1550.0
78.563972705,1563.0
78.580683974,1540.0
78.597395243,1611.0
78.614106512,1534.0
78.630817781,1620.0
78.647529049,1492.0
78.664240318,1610.0
78.680951587,1568.0
78.697662856,1468.0
78.714374125,1601.0
78.731085394,1541.0
78.747796663,1512.0
78.764507932,1542.0
78.781219201,1517.0
78.797930470,1521.0
78.814641739,1550.0
78.831353008,1600.0
78.848064277,1605.0
78.864775546,1605.0
78.881486815,1545.0
78.898198084,1551.0
78.914909353,1552.0
78.931620622,1571.0
78.948331891,1546.0
78.965043160,1586.0
78.981754429,1524.0
78.998465698,1550.0
79.015176967,1613.0
79.031888236,1545.0
79.048599505,1582.0
79.065310774,1608.0
79.082022043,1534.0
79.098733312,1518.0
79.115444581,1541.0
79.132155850,1593.0
79.148867119,1587.0
79.165578388,1497.0
79.182289657,1499.0
79.199000926,1587.0
79.215712195,1543.0
79.232423464,1518.0
79.249134733,1551.0
79.265846002,1505.0
79.282557271,1486.0
79.299268540,1498.0
79.315979809,1486.0
79.332691078,1529.0
79.349402347,1538.0
79.366113616,1561.0
79.382824885,1613.0
79.399536153,1515.0
79.416247422,1507.0
79.432958691,1487.0
79.449669960,1526.0
79.466381229,1592.0
79.483092498,1499.0
79.499803767,1523.0
79.516515036,1563.0
79.533226305,1582.0
79.549937574,1530.0
79.566648843,1604.0
79.583360112,1504.0
79.600071381,1558.0
79.616782650,1480.0
79.633493919,1472.0
79.650205188,1603.0
79.666916457,1528.0
79.683627726,1578.0
79.700338995,1485.0
79.717050264,1541.0
79.733761533,1494.0
79.750472802,1482.0
79.767184071,1536.0
79.783895340,1493.0
79.800606609,1484.0
79.817317878,1474.0
79.834029147,1552.0
79.850740416,1505.0
79.867451685,1509.0
79.884162954,1487.0
79.900874223,1556.0
79.917585492,1509.0
79.934296761,1521.0
79.951008030,1542.0
79.967719299,1474.0
79.984430568,1569.0
80.001141837,1513.0
80.017853106,1524.0
80.034564375,1501.0
80.051275644,1555.0
80.067986913,1436.0
80.084698182,1564.0
80.101409451,1516.0
80.118120720,1509.0
80.134831989,1604.0
80.151543258,1527.0
80.168254526,1540.0
80.184965795,1546.0
80.201677064,1525.0
80.218388333,1504.0
80.235099602,1450.0
80.251810871,1537.0
80.268522140,1507.0
80.285233409,1460.0
80.301944678,1492.0
80.318655947,1515.0
80.335367216,1544.0
80.352078485,1486.0
80.368789754,1521.0
80.385501023,1530.0
80.402212292,1504.0
80.418923561,1495.0
80.435634830,1458.0
80.452346099,1520.0
80.469057368,1434.0
80.485768637,1482.0
80.502479906,1596.0
80.519191175,1430.0
80.535902444,1483.0
80.552613713,1500.0
80.569324982,1503.0
80.586036251,1429.0
80.602747520,1477.0
80.619458789,1494.0
80.636170058,1505.0
80.652881327,1516.0
80.669592596,1521.0
80.686303865,1515.0
80.703015134,1565.0
80.719726403,1410.0
80.736437672,1458.0
80.753148941,1439.0
80.769860210,1564.0
80.786571479,1514.0
80.803282748,1498.0
80.819994017,1582.0
80.836705286,1500.0
80.853416555,1513.0
80.870127824,1504.0
80.886839093,1533.0
80.903550362,1579.0
80.920261630,1516.0
80.936972899,1470.0
80.953684168,1449.0
80.970395437,1474.0
80.987106706,1458.0
81.003817975,1489.0
81.020529244,1477.0
81.037240513,1563.0
81.053951782,1464.0
81.070663051,1491.0
81.087374320,1510.0
81.104085589,1537.0
81.120796858,1502.0
81.137508127,1507.0
81.154219396,1487.0
81.170930665,1494.0
81.187641934,1433.0
81.204353203,1467.0
81.221064472,1476.0
81.237775741,1502.0
81.254487010,1507.0
81.271198279,1496.0
81.287909548,1518.0
81.304620817,1470.0
81.321332086,1504.0
81.338043355,1461.0
81.354754624,1492.0
81.371465893,1506.0
81.388177162,1407.0
81.404888431,1491.0
81.421599700,1464.0
81.438310969,1480.0
81.455022238,1457.0
81.471733507,1478.0
81.488444776,1463.0
81.505156045,1414.0
81.521867314,1455.0
81.538578583,1488.0
81.555289852,1420.0
81.572001121,1490.0
81.588712390,1407.0
81.605423659,1508.0
81.622134928,1482.0
81.638846197,1517.0
81.655557466,1429.0
81.672268735,1494.0
81.688980003,1507.0
81.705691272,1503.0
81.722402541,1488.0
81.739113810,1423.0
81.755825079,1482.0
81.772536348,1463.0
81.789247617,1454.0
81.805958886,1574.0
81.822670155,1405.0
81.839381424,1411.0
81.856092693,1437.0
81.872803962,1413.0
81.889515231,1427.0
81.906226500,1439.0
81.922937769,1409.0
81.939649038,1440.0
81.956360307,1460.0
81.973071576,1468.0
81.989782845,1406.0
82.006494114,1462.0
82.023205383,1470.0
82.039916652,1527.0
82.056627921,1413.0
82.073339190,1509.0
82.090050459,1454.0
82.106761728,1456.0
82.123472997,1433.0
82.140184266,1426.0
82.156895535,1444.0
82.173606804,1503.0
82.190318073,1477.0
82.207029342,1423.0
82.223740611,1513.0
82.240451880,1433.0
82.257163149,1415.0
82.273874418,1437.0
82.290585687,1421.0
82.307296956,1457.0
82.324008225,1450.0
82.340719494,1458.0
82.357430763,1502.0
82.374142032,1468.0
82.390853301,1449.0
82.407564570,1472.0
82.424275839,1450.0
82.440987107,1414.0
82.457698376,1508.0
82.474409645,1524.0
82.491120914,1487.0
82.507832183,1491.0
82.524543452,1469.0
82.541254721,1444.0
82.557965990,1428.0
82.574677259,1462.0
82.591388528,1483.0
82.608099797,1416.0
82.624811066,1467.0
82.641522335,1473.0
82.658233604,1470.0
82.674944873,1445.0
82.691656142,1392.0
82.708367411,1443.0
82.725078680,1451.0
82.741789949,1448.0
82.758501218,1419.0
82.775212487,1484.0
82.791923756,1462.0
82.808635025,1355.0
82.825346294,1460.0
82.842057563,1404.0
82.858768832,1472.0
82.875480101,1419.0
82.892191370,1384.0
82.908902639,1525.0
82.925613908,1460.0
82.942325177,1488.0
82.959036446,1447.0
82.975747715,1443.0
82.992458984,1478.0
83.009170253,1540.0
83.025881522,1483.0
83.042592791,1444.0
83.059304060,1366.0
83.076015329,1457.0
83.092726598,1442.0
83.109437867,1368.0
83.126149136,1425.0
83.142860405,1449.0
83.159571674,1381.0
83.176282943,1348.0
83.192994212,1454.0
83.209705480,1402.0
83.226416749,1383.0
83.243128018,1456.0
83.259839287,1393.0
83.276550556,1452.0
83.293261825,1395.0
83.309973094,1463.0
83.326684363,1385.0
83.343395632,1525.0
83.360106901,1474.0
83.376818170,1509.0
83.393529439,1428.0
83.410240708,1476.0
83.426951977,1392.0
83.443663246,1443.0
83.460374515,1446.0
83.477085784,1459.0
83.493797053,1351.0
83.510508322,1420.0
83.527219591,1444.0
83.543930860,1440.0
83.560642129,1450.0
83.577353398,1417.0
83.594064667,1440.0
83.610775936,1437.0
83.627487205,1416.0
83.644198474,1442.0
83.660909743,1395.0
83.677621012,1426.0
83.694332281,1487.0
83.711043550,1408.0
83.727754819,1461.0
83.744466088,1456.0
83.761177357,1488.0
83.777888626,1478.0
83.794599895,1447.0
83.811311164,1409.0
83.828022433,1419.0
83.844733702,1416.0
83.861444971,1423.0
83.878156240,1451.0
83.894867509,1357.0
83.911578778,1455.0
83.928290047,1431.0
83.945001316,1417.0
83.961712584,1468.0
83.978423853,1332.0
83.995135122,1402.0
84.011846391,1426.0
84.028557660,1539.0
84.045268929,1355.0
84.061980198,1478.0
84.078691467,1441.0
84.095402736,1488.0
84.112114005,1418.0
84.128825274,1416.0
84.145536543,1338.0
84.162247812,1380.0
84.178959081,1398.0
84.195670350,1435.0
84.212381619,1422.0
84.229092888,1458.0
84.245804157,1342.0
84.262515426,1397.0
84.279226695,1446.0
84.295937964,1368.0
84.312649233,1416.0
84.329360502,1443.0
84.346071771,1469.0
84.362783040,1392.0
84.379494309,1389.0
84.396205578,1384.0
84.412916847,1371.0
84.429628116,1360.0
84.446339385,1359.0
84.463050654,1425.0
84.479761923,1469.0
84.496473192,1311.0
84.513184461,1421.0
84.529895730,1390.0
84.546606999,1431.0
84.563318268,1446.0
84.580029537,1445.0
84.596740806,1409.0
84.613452075,1446.0
84.630163344,1481.0
84.646874613,1392.0
84.663585882,1396.0
84.680297151,1441.0
84.697008420,1445.0
84.713719689,1361.0
84.730430957,1358.0
84.747142226,1424.0
84.763853495,1389.0
84.780564764,1430.0
84.797276033,1406.0
84.813987302,1480.0
84.830698571,1383.0
84.847409840,1377.0
84.864121109,1401.0
84.880832378,1387.0
84.897543647,1377.0
84.914254916,1375.0
84.930966185,1396.0
84.947677454,1393.0
84.964388723,1359.0
84.981099992,1404.0
84.997811261,1387.0
85.014522530,1417.0
85.031233799,1349.0
85.047945068,1399.0
85.064656337,1365.0
85.081367606,1347.0
85.098078875,1441.0
85.114790144,1436.0
85.131501413,1380.0
85.148212682,1455.0
85.164923951,1390.0
85.181635220,1404.0
85.198346489,1422.0
85.215057758,1433.0
85.231769027,1393.0
85.248480296,1469.0
85.265191565,1418.0
85.281902834,1429.0
85.298614103,1330.0
85.315325372,1392.0
85.332036641,1389.0
85.348747910,1373.0
85.365459179,1399.0
85.382170448,1403.0
85.398881717,1338.0
85.415592986,1364.0
85.432304255,1494.0
85.449015524,1387.0
85.465726793,1409.0
85.482438061,1456.0
85.499149330,1502.0
85.515860599,1457.0
85.532571868,1446.0
85.549283137,1381.0
85.565994406,1436.0
85.582705675,1308.0
85.599416944,1346.0
85.616128213,1412.0
85.632839482,1387.0
85.649550751,1387.0
85.666262020,1415.0
85.682973289,1400.0
85.699684558,1360.0
85.716395827,1428.0
85.733107096,1323.0
85.749818365,1420.0
85.766529634,1460.0
85.783240903,1352.0
85.799952172,1406.0
85.816663441,1405.0
85.833374710,1351.0
85.850085979,1445.0
85.866797248,1423.0
85.883508517,1343.0
85.900219786,1356.0
85.916931055,1393.0
85.933642324,1395.0
85.950353593,1322.0
85.967064862,1411.0
85.983776131,1378.0
86.000487400,1365.0
86.017198669,1379.0
86.033909938,1347.0
86.050621207,1371.0
86.067332476,1411.0
86.084043745,1385.0
86.100755014,1474.0
86.117466283,1413.0
86.134177552,1364.0
86.150888821,1462.0
86.167600090,1398.0
86.184311359,1331.0
86.201022628,1360.0
86.217733897,1345.0
86.234445166,1341.0
86.251156434,1345.0
86.267867703,1339.0
86.284578972,1344.0
86.301290241,1357.0
86.318001510,1380.0
86.334712779,1386.0
86.351424048,1369.0
86.368135317,1394.0
86.384846586,1421.0
86.401557855,1326.0
86.418269124,1390.0
86.434980393,1413.0
86.451691662,1344.0
86.468402931,1345.0
86.485114200,1413.0
86.501825469,1443.0
86.518536738,1416.0
86.535248007,1363.0
86.551959276,1361.0
86.568670545,1381.0
86.585381814,1378.0
86.602093083,1427.0
86.618804352,1360.0
86.635515621,1313.0
86.652226890,1347.0
86.668938159,1341.0
86.685649428,1346.0
86.702360697,1300.0
86.719071966,1327.0
86.735783235,1350.0
86.752494504,1429.0
86.769205773,1317.0
86.785917042,1362.0
86.802628311,1364.0
86.819339580,1327.0
86.836050849,1347.0
86.852762118,1377.0
86.869473387,1382.0
86.886184656,1354.0
86.902895925,1424.0
86.919607194,1360.0
86.936318463,1362.0
86.953029732,1312.0
86.969741001,1350.0
86.986452270,1449.0
87.003163539,1415.0
87.019874807,1338.0
87.036586076,1343.0
87.053297345,1429.0
87.070008614,1446.0
87.086719883,1309.0
87.103431152,1385.0
87.120142421,1398.0
87.136853690,1272.0
87.153564959,1386.0
87.170276228,1394.0
87.186987497,1343.0
87.203698766,1342.0
87.220410035,1399.0
87.237121304,1375.0
87.253832573,1321.0
87.270543842,1346.0
87.287255111,1379.0
87.303966380,1336.0
87.320677649,1385.0
87.337388918,1407.0
87.354100187,1329.0
87.370811456,1362.0
87.387522725,1341.0
87.404233994,1392.0
87.420945263,1284.0
87.437656532,1353.0
87.454367801,1371.0
87.471079070,1346.0
87.487790339,1362.0
87.504501608,1386.0
87.521212877,1358.0
87.537924146,1411.0
87.554635415,1337.0
87.571346684,1388.0
87.588057953,1355.0
87.604769222,1408.0
87.621480491,1321.0
87.638191760,1416.0
87.654903029,1304.0
87.671614298,1381.0
87.688325567,1343.0
87.705036836,1390.0
87.721748105,1349.0
87.738459374,1346.0
87.755170643,1306.0
87.771881911,1401.0
87.788593180,1336.0
87.805304449,1342.0
87.822015718,1453.0
87.838726987,1344.0
87.855438256,1288.0
87.872149525,1351.0
87.888860794,1394.0
87.905572063,1316.0
87.922283332,1294.0
87.938994601,1370.0
87.955705870,1350.0
87.972417139,1359.0
87.989128408,1321.0
88.005839677,1420.0
88.022550946,1346.0
88.039262215,1377.0
88.055973484,1350.0
88.072684753,1331.0
88.089396022,1346.0
88.106107291,1390.0
88.122818560,1268.0
88.139529829,1353.0
88.156241098,1381.0
88.172952367,1360.0
88.189663636,1365.0
88.206374905,1348.0
88.223086174,1346.0
88.239797443,1378.0
88.256508712,1333.0
88.273219981,1363.0
88.289931250,1371.0
88.306642519,1279.0
88.323353788,1361.0
88.340065057,1386.0
88.356776326,1348.0
88.373487595,1255.0
88.390198864,1376.0
88.406910133,1345.0
88.423621402,1332.0
88.440332671,1359.0
88.457043940,1351.0
88.473755209,1348.0
88.490466478,1409.0
88.507177747,1418.0
88.523889016,1333.0
88.540600284,1394.0
88.557311553,1336.0
88.574022822,1300.0
88.590734091,1344.0
88.607445360,1382.0
88.624156629,1388.0
88.640867898,1317.0
88.657579167,1325.0
88.674290436,1378.0
88.691001705,1364.0
88.707712974,1383.0
88.724424243,1331.0
88.741135512,1311.0
88.757846781,1345.0
88.774558050,1322.0
88.791269319,1337.0
88.807980588,1333.0
88.824691857,1374.0
88.841403126,1331.0
88.858114395,1355.0
88.874825664,1357.0
88.891536933,1400.0
88.908248202,1351.0
88.924959471,1364.0
88.941670740,1395.0
88.958382009,1349.0
88.975093278,1380.0
88.991804547,1346.0
89.008515816,1333.0
89.025227085,1287.0
89.041938354,1306.0
89.058649623,1333.0
89.075360892,1382.0
89.092072161,1339.0
89.108783430,1330.0
89.125494699,1326.0
89.142205968,1314.0
89.158917237,1452.0
89.175628506,1406.0
89.192339775,1360.0
89.209051044,1334.0
89.225762313,1345.0
89.242473582,1400.0
89.259184851,1386.0
89.275896120,1363.0
89.292607388,1331.0
89.309318657,1348.0
89.326029926,1370.0
89.342741195,1331.0
89.359452464,1320.0
89.376163733,1313.0
89.392875002,1236.0
89.409586271,1328.0
89.426297540,1352.0
89.443008809,1348.0
89.459720078,1380.0
89.476431347,1294.0
89.493142616,1420.0
89.509853885,1330.0
89.526565154,1351.0
89.543276423,1346.0
89.559987692,1433.0
89.576698961,1372.0
89.593410230,1370.0
89.610121499,1328.0
89.626832768,1296.0
89.643544037,1278.0
89.660255306,1378.0
89.676966575,1303.0
89.693677844,1412.0
89.710389113,1373.0
89.727100382,1298.0
89.743811651,1365.0
89.760522920,1358.0
89.777234189,1310.0
89.793945458,1409.0
89.810656727,1333.0
89.827367996,1252.0
89.844079265,1362.0
89.860790534,1359.0
89.877501803,1351.0
89.894213072,1290.0
89.910924341,1338.0
89.927635610,1299.0
89.944346879,1316.0
89.961058148,1399.0
89.977769417,1343.0
89.994480686,1303.0
90.011191955,1331.0
90.027903224,1315.0
90.044614493,1340.0
90.061325761,1370.0
90.078037030,1381.0
90.094748299,1355.0
90.111459568,1359.0
90.128170837,1371.0
90.144882106,1323.0
90.161593375,1390.0
90.178304644,1428.0
90.195015913,1375.0
90.211727182,1355.0
90.228438451,1304.0
90.245149720,1378.0
90.261860989,1370.0
90.278572258,1420.0
90.295283527,1292.0
90.311994796,1319.0
90.328706065,1317.0
90.345417334,1377.0
90.362128603,1303.0
90.378839872,1373.0
90.395551141,1314.0
90.412262410,1318.0
90.428973679,1376.0
90.445684948,1362.0
90.462396217,1335.0
90.479107486,1351.0
90.495818755,1426.0
90.512530024,1302.0
90.529241293,1315.0
90.545952562,1348.0
90.562663831,1288.0
90.579375100,1320.0
90.596086369,1303.0
90.612797638,1398.0
90.629508907,1419.0
90.646220176,1285.0
90.662931445,1341.0
90.679642714,1340.0
90.696353983,1298.0
90.713065252,1374.0
90.729776521,1336.0
90.746487790,1326.0
90.763199059,1317.0
90.779910328,1389.0
90.796621597,1357.0
90.813332865,1372.0
90.830044134,1360.0
90.846755403,1384.0
90.863466672,1337.0
90.880177941,1313.0
90.896889210,1301.0
90.913600479,1327.0
90.930311748,1314.0
90.947023017,1357.0
90.963734286,1327.0
90.980445555,1357.0
90.997156824,1358.0
91.013868093,1348.0
91.030579362,1437.0
91.047290631,1372.0
91.064001900,1379.0
91.080713169,1361.0
91.097424438,1313.0
91.114135707,1325.0
91.130846976,1401.0
91.147558245,1409.0
91.164269514,1304.0
91.180980783,1357.0
91.197692052,1333.0
91.214403321,1347.0
91.231114590,1325.0
91.247825859,1397.0
91.264537128,1378.0
91.281248397,1431.0
91.297959666,1337.0
91.314670935,1394.0
91.331382204,1302.0
91.348093473,1378.0
91.364804742,1309.0
91.381516011,1449.0
91.398227280,1303.0
91.414938549,1472.0
91.431649818,1347.0
91.448361087,1417.0
91.465072356,1371.0
91.481783625,1378.0
91.498494894,1383.0
91.515206163,1326.0
91.531917432,1415.0
91.548628701,1424.0
91.565339970,1432.0
91.582051238,1430.0
91.598762507,1432.0
91.615473776,1442.0
91.632185045,1393.0
91.648896314,1395.0
91.665607583,1376.0
91.682318852,1376.0
91.699030121,1477.0
91.715741390,1496.0
91.732452659,1377.0
91.749163928,1467.0
91.765875197,1462.0
91.782586466,1449.0
91.799297735,1421.0
91.816009004,1346.0
91.832720273,1464.0
91.849431542,1451.0
91.866142811,1513.0
91.882854080,1483.0
91.899565349,1414.0
91.916276618,1551.0
91.932987887,1450.0
91.949699156,1479.0
91.966410425,1494.0
91.983121694,1521.0
91.999832963,1544.0
92.016544232,1579.0
92.033255501,1538.0
92.049966770,1573.0
92.066678039,1568.0
92.083389308,1566.0
92.100100577,1636.0
92.116811846,1548.0
92.133523115,1621.0
92.150234384,1562.0
92.166945653,1631.0
92.183656922,1624.0
92.200368191,1652.0
92.217079460,1643.0
92.233790729,1655.0
92.250501998,1593.0
92.267213267,1689.0
92.283924536,1705.0
92.300635805,1728.0
92.317347074,1756.0
92.334058342,1683.0
92.350769611,1804.0
92.367480880,1825.0
92.384192149,1750.0
92.400903418,1792.0
92.417614687,1804.0
92.434325956,1871.0
92.451037225,1827.0
92.467748494,1874.0
92.484459763,1803.0
92.501171032,1842.0
92.517882301,1863.0
92.534593570,1834.0
92.551304839,1807.0
92.568016108,1792.0
92.584727377,1776.0
92.601438646,1734.0
92.618149915,1815.0
92.634861184,1693.0
92.651572453,1681.0
92.668283722,1746.0
92.684994991,1608.0
92.701706260,1711.0
92.718417529,1705.0
92.735128798,1740.0
92.751840067,1520.0
92.768551336,1641.0
92.785262605,1605.0
92.801973874,1556.0
92.818685143,1609.0
92.835396412,1521.0
92.852107681,1513.0
92.868818950,1499.0
92.885530219,1615.0
92.902241488,1532.0
92.918952757,1455.0
92.935664026,1484.0
92.952375295,1489.0
92.969086564,1478.0
92.985797833,1441.0
93.002509102,1511.0
93.019220371,1433.0
93.035931640,1417.0
93.052642909,1408.0
93.069354178,1390.0
93.086065447,1377.0
93.102776715,1431.0
93.119487984,1416.0
93.136199253,1443.0
93.152910522,1376.0
93.169621791,1356.0
93.186333060,1391.0
93.203044329,1410.0
93.219755598,1367.0
93.236466867,1366.0
93.253178136,1303.0
93.269889405,1359.0
93.286600674,1383.0
93.303311943,1289.0
93.320023212,1382.0
93.336734481,1335.0
93.353445750,1316.0
93.370157019,1372.0
93.386868288,1337.0
93.403579557,1390.0
93.420290826,1332.0
93.437002095,1362.0
93.453713364,1335.0
93.470424633,1363.0
93.487135902,1355.0
93.503847171,1382.0
93.520558440,1278.0
93.537269709,1343.0
93.553980978,1320.0
93.570692247,1344.0
93.587403516,1239.0
93.604114785,1324.0
93.620826054,1312.0
93.637537323,1286.0
93.654248592,1353.0
93.670959861,1299.0
93.687671130,1327.0
93.704382399,1279.0
93.721093668,1358.0
93.737804937,1243.0
93.754516206,1304.0
93.771227475,1336.0
93.787938744,1341.0
93.804650013,1309.0
93.821361282,1348.0
93.838072551,1348.0
93.854783819,1336.0
93.871495088,1327.0
93.888206357,1318.0
93.904917626,1316.0
93.921628895,1382.0
93.938340164,1303.0
93.955051433,1372.0
93.971762702,1257.0
93.988473971,1306.0
94.005185240,1309.0
94.021896509,1295.0
94.038607778,1320.0
94.055319047,1323.0
94.072030316,1299.0
94.088741585,1346.0
94.105452854,1308.0
94.122164123,1324.0
94.138875392,1274.0
94.155586661,1350.0
94.172297930,1307.0
94.189009199,1319.0
94.205720468,1314.0
94.222431737,1221.0
94.239143006,1311.0
94.255854275,1345.0
94.272565544,1294.0
94.289276813,1272.0
94.305988082,1317.0
94.322699351,1305.0
94.339410620,1293.0
94.356121889,1343.0
94.372833158,1380.0
94.389544427,1313.0
94.406255696,1341.0
94.422966965,1314.0
94.439678234,1249.0
94.456389503,1293.0
94.473100772,1294.0
94.489812041,1331.0
94.506523310,1307.0
94.523234579,1285.0
94.539945848,1275.0
94.556657117,1306.0
94.573368386,1275.0
94.590079655,1348.0
94.606790924,1278.0
94.623502192,1280.0
94.640213461,1325.0
94.656924730,1352.0
94.673635999,1296.0
94.690347268,1251.0
94.707058537,1306.0
94.723769806,1263.0
94.740481075,1287.0
94.757192344,1310.0
94.773903613,1330.0
94.790614882,1315.0
94.807326151,1290.0
94.824037420,1288.0
94.840748689,1328.0
94.857459958,1291.0
94.874171227,1293.0
94.890882496,1287.0
94.907593765,1294.0
94.924305034,1285.0
94.941016303,1363.0
94.957727572,1264.0
94.974438841,1305.0
94.991150110,1361.0
