[Measurement conditions]
Sample identification,
Comment - 1,"finito"
Comment - 2,"Configuration=MRI TC-Basic Stage, Owner=User-1, Creation date=26-10-2009 9:18:44"
Comment - 3,"Goniometer=PW3050/60 (Theta/Theta); Minimum step size 2Theta:0.001; Minimum step size Omega:0.001"
Comment - 4,"Sample stage=MRI TC-Basic (PtRh heat strip)"
Comment - 5,"Diffractometer system=XPERT-PRO"
Comment - 6,"Measurement program=FS-L, Owner=joana, Creation date=25-11-2014 17:28:08"
Anode material,Cu
K-Alpha1 wavelength,1.5405980
K-Alpha2 wavelength,1.5444260
Ratio K-Alpha2/K-Alpha1,0.500
Divergence slit,Fixed,0.76mm
Monochromator used,NO
Generator voltage, 45
Tube current, 40
File date and time,15-Dez-2017 16:06
Unit cell,
h k l, 0 0 0
Temperature [K],301
Scan axis,Gonio
Scan range,24.995999996,94.999505744
Scan step size,0.0167113
No. of points, 4189
Scan type,CONTINUOUS
Time per step,118.110
[Scan points]
Angle,Intensity
25.004355630,2324.0
25.021066899,2290.0
25.037778168,2382.0
25.054489437,2303.0
25.071200706,2244.0
25.087911975,2400.0
25.104623244,2366.0
25.121334513,2267.0
25.138045782,2311.0
25.154757051,2256.0
25.171468320,2369.0
25.188179589,2386.0
25.204890858,2282.0
25.221602127,2175.0
25.238313396,2269.0
25.255024665,2279.0
25.271735934,2294.0
25.288447203,2257.0
25.305158472,2271.0
25.321869741,2308.0
25.338581010,2345.0
25.355292279,2229.0
25.372003548,2283.0
25.388714816,2268.0
25.405426085,2270.0
25.422137354,2240.0
25.438848623,2305.0
25.455559892,2242.0
25.472271161,2247.0
25.488982430,2379.0
25.505693699,2279.0
25.522404968,2221.0
25.539116237,2258.0
25.555827506,2285.0
25.572538775,2377.0
25.589250044,2281.0
25.605961313,2192.0
25.622672582,2286.0
25.639383851,2290.0
25.656095120,2387.0
25.672806389,2296.0
25.689517658,2352.0
25.706228927,2272.0
25.722940196,2387.0
25.739651465,2330.0
25.756362734,2301.0
25.773074003,2197.0
25.789785272,2278.0
25.806496541,2361.0
25.823207810,2230.0
25.839919079,2271.0
25.856630348,2252.0
25.873341617,2279.0
25.890052886,2151.0
25.906764155,2294.0
25.923475424,2275.0
25.940186693,2267.0
25.956897962,2307.0
25.973609231,2176.0
25.990320500,2286.0
26.007031769,2232.0
26.023743038,2238.0
26.040454307,2327.0
26.057165576,2228.0
26.073876845,2297.0
26.090588114,2309.0
26.107299383,2287.0
26.124010652,2262.0
26.140721921,2268.0
26.157433189,2279.0
26.174144458,2261.0
26.190855727,2268.0
26.207566996,2340.0
26.224278265,2287.0
26.240989534,2285.0
26.257700803,2260.0
26.274412072,2294.0
26.291123341,2284.0
26.307834610,2235.0
26.324545879,2219.0
26.341257148,2171.0
26.357968417,2274.0
26.374679686,2210.0
26.391390955,2247.0
26.408102224,2225.0
26.424813493,2199.0
26.441524762,2240.0
26.458236031,2249.0
26.474947300,2164.0
26.491658569,2247.0
26.508369838,2254.0
26.525081107,2211.0
26.541792376,2295.0
26.558503645,2218.0
26.575214914,2287.0
26.591926183,2246.0
26.608637452,2297.0
26.625348721,2218.0
26.642059990,2289.0
26.658771259,2248.0
26.675482528,2264.0
26.692193797,2234.0
26.708905066,2268.0
26.725616335,2226.0
26.742327604,2267.0
26.759038873,2349.0
26.775750142,2256.0
26.792461411,2234.0
26.809172680,2210.0
26.825883949,2350.0
26.842595218,2262.0
26.859306487,2245.0
26.876017756,2253.0
26.892729025,2284.0
26.909440293,2358.0
26.926151562,2359.0
26.942862831,2250.0
26.959574100,2163.0
26.976285369,2282.0
26.992996638,2258.0
27.009707907,2228.0
27.026419176,2224.0
27.043130445,2255.0
27.059841714,2188.0
27.076552983,2237.0
27.093264252,2127.0
27.109975521,2204.0
27.126686790,2276.0
27.143398059,2311.0
27.160109328,2231.0
27.176820597,2232.0
27.193531866,2236.0
27.210243135,2265.0
27.226954404,2278.0
27.243665673,2213.0
27.260376942,2278.0
27.277088211,2188.0
27.293799480,2184.0
27.310510749,2250.0
27.327222018,2279.0
27.343933287,2256.0
27.360644556,2142.0
27.377355825,2258.0
27.394067094,2196.0
27.410778363,2247.0
27.427489632,2167.0
27.444200901,2199.0
27.460912170,2193.0
27.477623439,2203.0
27.494334708,2305.0
27.511045977,2269.0
27.527757246,2276.0
27.544468515,2235.0
27.561179784,2220.0
27.577891053,2191.0
27.594602322,2307.0
27.611313591,2227.0
27.628024860,2173.0
27.644736129,2153.0
27.661447398,2270.0
27.678158666,2112.0
27.694869935,2279.0
27.711581204,2198.0
27.728292473,2237.0
27.745003742,2208.0
27.761715011,2333.0
27.778426280,2237.0
27.795137549,2278.0
27.811848818,2221.0
27.828560087,2224.0
27.845271356,2198.0
27.861982625,2217.0
27.878693894,2214.0
27.895405163,2266.0
27.912116432,2217.0
27.928827701,2172.0
27.945538970,2162.0
27.962250239,2170.0
27.978961508,2106.0
27.995672777,2299.0
28.012384046,2230.0
28.029095315,2211.0
28.045806584,2186.0
28.062517853,2173.0
28.079229122,2213.0
28.095940391,2217.0
28.112651660,2137.0
28.129362929,2222.0
28.146074198,2203.0
28.162785467,2237.0
28.179496736,2185.0
28.196208005,2203.0
28.212919274,2165.0
28.229630543,2231.0
28.246341812,2307.0
28.263053081,2277.0
28.279764350,2267.0
28.296475619,2431.0
28.313186888,2365.0
28.329898157,2306.0
28.346609426,2226.0
28.363320695,2384.0
28.380031964,2350.0
28.396743233,2311.0
28.413454502,2365.0
28.430165770,2364.0
28.446877039,2259.0
28.463588308,2403.0
28.480299577,2335.0
28.497010846,2349.0
28.513722115,2385.0
28.530433384,2384.0
28.547144653,2470.0
28.563855922,2338.0
28.580567191,2489.0
28.597278460,2364.0
28.613989729,2494.0
28.630700998,2306.0
28.647412267,2374.0
28.664123536,2348.0
28.680834805,2317.0
28.697546074,2296.0
28.714257343,2314.0
28.730968612,2331.0
28.747679881,2398.0
28.764391150,2385.0
28.781102419,2216.0
28.797813688,2302.0
28.814524957,2221.0
28.831236226,2278.0
28.847947495,2265.0
28.864658764,2288.0
28.881370033,2341.0
28.898081302,2337.0
28.914792571,2227.0
28.931503840,2165.0
28.948215109,2252.0
28.964926378,2309.0
28.981637647,2152.0
28.998348916,2227.0
29.015060185,2118.0
29.031771454,2218.0
29.048482723,2271.0
29.065193992,2242.0
29.081905261,2210.0
29.098616530,2202.0
29.115327799,2271.0
29.132039068,2226.0
29.148750337,2170.0
29.165461606,2214.0
29.182172875,2322.0
29.198884143,2274.0
29.215595412,2311.0
29.232306681,2233.0
29.249017950,2213.0
29.265729219,2192.0
29.282440488,2233.0
29.299151757,2175.0
29.315863026,2274.0
29.332574295,2240.0
29.349285564,2238.0
29.365996833,2179.0
29.382708102,2169.0
29.399419371,2259.0
29.416130640,2204.0
29.432841909,2191.0
29.449553178,2180.0
29.466264447,2181.0
29.482975716,2242.0
29.499686985,2221.0
29.516398254,2146.0
29.533109523,2089.0
29.549820792,2291.0
29.566532061,2251.0
29.583243330,2202.0
29.599954599,2084.0
29.616665868,2148.0
29.633377137,2128.0
29.650088406,2242.0
29.666799675,2182.0
29.683510944,2122.0
29.700222213,2135.0
29.716933482,2226.0
29.733644751,2215.0
29.750356020,2192.0
29.767067289,2191.0
29.783778558,2171.0
29.800489827,2166.0
29.817201096,2185.0
29.833912365,2116.0
29.850623634,2161.0
29.867334903,2078.0
29.884046172,2024.0
29.900757441,2188.0
29.917468710,2136.0
29.934179979,2143.0
29.950891247,2075.0
29.967602516,2082.0
29.984313785,2162.0
30.001025054,2277.0
30.017736323,2181.0
30.034447592,2200.0
30.051158861,2142.0
30.067870130,2159.0
30.084581399,2077.0
30.101292668,2151.0
30.118003937,2141.0
30.134715206,2201.0
30.151426475,2062.0
30.168137744,2144.0
30.184849013,2276.0
30.201560282,2180.0
30.218271551,2205.0
30.234982820,2118.0
30.251694089,2111.0
30.268405358,2124.0
30.285116627,2117.0
30.301827896,2140.0
30.318539165,2038.0
30.335250434,2161.0
30.351961703,2124.0
30.368672972,2191.0
30.385384241,2187.0
30.402095510,2143.0
30.418806779,2094.0
30.435518048,2104.0
30.452229317,2090.0
30.468940586,2177.0
30.485651855,2113.0
30.502363124,2180.0
30.519074393,2159.0
30.535785662,2229.0
30.552496931,2103.0
30.569208200,2069.0
30.585919469,2136.0
30.602630738,2163.0
30.619342007,2147.0
30.636053276,2125.0
30.652764545,2146.0
30.669475814,2135.0
30.686187083,2163.0
30.702898352,2158.0
30.719609620,2116.0
30.736320889,2061.0
30.753032158,2185.0
30.769743427,2140.0
30.786454696,2155.0
30.803165965,2238.0
30.819877234,2112.0
30.836588503,2090.0
30.853299772,2130.0
30.870011041,2165.0
30.886722310,2136.0
30.903433579,2134.0
30.920144848,2152.0
30.936856117,2097.0
30.953567386,2104.0
30.970278655,2166.0
30.986989924,2157.0
31.003701193,2172.0
31.020412462,2212.0
31.037123731,2125.0
31.053835000,2176.0
31.070546269,2046.0
31.087257538,2151.0
31.103968807,2070.0
31.120680076,2135.0
31.137391345,2093.0
31.154102614,2058.0
31.170813883,2229.0
31.187525152,2072.0
31.204236421,2210.0
31.220947690,2092.0
31.237658959,2145.0
31.254370228,2131.0
31.271081497,2195.0
31.287792766,2114.0
31.304504035,2095.0
31.321215304,2160.0
31.337926573,2157.0
31.354637842,2113.0
31.371349111,2134.0
31.388060380,2093.0
31.404771649,2121.0
31.421482918,2045.0
31.438194187,2088.0
31.454905456,2113.0
31.471616724,2175.0
31.488327993,2106.0
31.505039262,2111.0
31.521750531,2110.0
31.538461800,2123.0
31.555173069,2092.0
31.571884338,2121.0
31.588595607,2184.0
31.605306876,2129.0
31.622018145,2173.0
31.638729414,2080.0
31.655440683,2091.0
31.672151952,2132.0
31.688863221,2061.0
31.705574490,2146.0
31.722285759,2144.0
31.738997028,2082.0
31.755708297,2115.0
31.772419566,2119.0
31.789130835,2056.0
31.805842104,2129.0
31.822553373,2109.0
31.839264642,2062.0
31.855975911,2144.0
31.872687180,2061.0
31.889398449,2170.0
31.906109718,2057.0
31.922820987,2090.0
31.939532256,2091.0
31.956243525,2063.0
31.972954794,2201.0
31.989666063,2092.0
32.006377332,2068.0
32.023088601,2101.0
32.039799870,2100.0
32.056511139,2139.0
32.073222408,2173.0
32.089933677,2189.0
32.106644946,2143.0
32.123356215,2071.0
32.140067484,2083.0
32.156778753,2118.0
32.173490022,2129.0
32.190201291,2124.0
32.206912560,2085.0
32.223623829,2095.0
32.240335097,2122.0
32.257046366,2098.0
32.273757635,2171.0
32.290468904,2102.0
32.307180173,2009.0
32.323891442,2139.0
32.340602711,2203.0
32.357313980,2089.0
32.374025249,2099.0
32.390736518,2115.0
32.407447787,2103.0
32.424159056,2196.0
32.440870325,2144.0
32.457581594,2125.0
32.474292863,2081.0
32.491004132,2101.0
32.507715401,2106.0
32.524426670,2080.0
32.541137939,2070.0
32.557849208,2064.0
32.574560477,2174.0
32.591271746,2129.0
32.607983015,2156.0
32.624694284,2159.0
32.641405553,2063.0
32.658116822,2149.0
32.674828091,2131.0
32.691539360,2119.0
32.708250629,2040.0
32.724961898,2104.0
32.741673167,2099.0
32.758384436,2196.0
32.775095705,2095.0
32.791806974,2117.0
32.808518243,2093.0
32.825229512,2165.0
32.841940781,2054.0
32.858652050,2080.0
32.875363319,2086.0
32.892074588,2081.0
32.908785857,2098.0
32.925497126,2159.0
32.942208395,2064.0
32.958919664,2083.0
32.975630933,2146.0
32.992342201,2059.0
33.009053470,2114.0
33.025764739,2079.0
33.042476008,2126.0
33.059187277,2193.0
33.075898546,2122.0
33.092609815,2078.0
33.109321084,2134.0
33.126032353,2089.0
33.142743622,2104.0
33.159454891,2078.0
33.176166160,2091.0
33.192877429,2079.0
33.209588698,2082.0
33.226299967,2144.0
33.243011236,2007.0
33.259722505,1993.0
33.276433774,2155.0
33.293145043,2066.0
33.309856312,2073.0
33.326567581,2086.0
33.343278850,2140.0
33.359990119,2056.0
33.376701388,2126.0
33.393412657,2007.0
33.410123926,2046.0
33.426835195,2101.0
33.443546464,2094.0
33.460257733,2175.0
33.476969002,2141.0
33.493680271,2065.0
33.510391540,2117.0
33.527102809,2088.0
33.543814078,2176.0
33.560525347,2110.0
33.577236616,2165.0
33.593947885,2052.0
33.610659154,2167.0
33.627370423,2029.0
33.644081692,1969.0
33.660792961,2078.0
33.677504230,2013.0
33.694215499,2106.0
33.710926768,2045.0
33.727638037,2086.0
33.744349306,2081.0
33.761060574,2144.0
33.777771843,2130.0
33.794483112,2036.0
33.811194381,2088.0
33.827905650,2026.0
33.844616919,2078.0
33.861328188,2047.0
33.878039457,2198.0
33.894750726,2118.0
33.911461995,2121.0
33.928173264,2124.0
33.944884533,2117.0
33.961595802,2047.0
33.978307071,2147.0
33.995018340,2083.0
34.011729609,2068.0
34.028440878,2014.0
34.045152147,2099.0
34.061863416,2052.0
34.078574685,2062.0
34.095285954,2091.0
34.111997223,2115.0
34.128708492,2173.0
34.145419761,2048.0
34.162131030,2167.0
34.178842299,2037.0
34.195553568,2037.0
34.212264837,2110.0
34.228976106,2096.0
34.245687375,2072.0
34.262398644,2129.0
34.279109913,2061.0
34.295821182,2129.0
34.312532451,2044.0
34.329243720,2018.0
34.345954989,2075.0
34.362666258,2059.0
34.379377527,2073.0
34.396088796,2145.0
34.412800065,2036.0
34.429511334,2021.0
34.446222603,2104.0
34.462933872,2086.0
34.479645141,2019.0
34.496356410,2061.0
34.513067679,2068.0
34.529778947,2124.0
34.546490216,1982.0
34.563201485,2135.0
34.579912754,2091.0
34.596624023,2084.0
34.613335292,2164.0
34.630046561,2140.0
34.646757830,2149.0
34.663469099,1985.0
34.680180368,2103.0
34.696891637,2040.0
34.713602906,2143.0
34.730314175,2035.0
34.747025444,2091.0
34.763736713,2095.0
34.780447982,2128.0
34.797159251,2118.0
34.813870520,2075.0
34.830581789,2033.0
34.847293058,2003.0
34.864004327,2077.0
34.880715596,2034.0
34.897426865,2096.0
34.914138134,2122.0
34.930849403,2039.0
34.947560672,2150.0
34.964271941,2050.0
34.980983210,2100.0
34.997694479,2071.0
35.014405748,2105.0
35.031117017,2054.0
35.047828286,1990.0
35.064539555,2079.0
35.081250824,2168.0
35.097962093,2182.0
35.114673362,2111.0
35.131384631,2129.0
35.148095900,2100.0
35.164807169,2092.0
35.181518438,2030.0
35.198229707,2085.0
35.214940976,2065.0
35.231652245,2020.0
35.248363514,2127.0
35.265074783,2062.0
35.281786051,2118.0
35.298497320,2153.0
35.315208589,2069.0
35.331919858,2136.0
35.348631127,2054.0
35.365342396,2068.0
35.382053665,2092.0
35.398764934,2117.0
35.415476203,2058.0
35.432187472,2080.0
35.448898741,2069.0
35.465610010,2062.0
35.482321279,1940.0
35.499032548,2108.0
35.515743817,2107.0
35.532455086,2015.0
35.549166355,2138.0
35.565877624,2045.0
35.582588893,2092.0
35.599300162,2129.0
35.616011431,2006.0
35.632722700,2011.0
35.649433969,2069.0
35.666145238,1984.0
35.682856507,2160.0
35.699567776,2076.0
35.716279045,2050.0
35.732990314,2035.0
35.749701583,2062.0
35.766412852,2073.0
35.783124121,2035.0
35.799835390,2072.0
35.816546659,2092.0
35.833257928,2113.0
35.849969197,1992.0
35.866680466,2037.0
35.883391735,2056.0
35.900103004,2008.0
35.916814273,1991.0
35.933525542,2058.0
35.950236811,2021.0
35.966948080,2015.0
35.983659349,1999.0
36.000370618,2066.0
36.017081887,2085.0
36.033793156,2085.0
36.050504424,1995.0
36.067215693,1991.0
36.083926962,2098.0
36.100638231,2075.0
36.117349500,2038.0
36.134060769,1976.0
36.150772038,2029.0
36.167483307,2126.0
36.184194576,2006.0
36.200905845,2031.0
36.217617114,2048.0
36.234328383,2049.0
36.251039652,1988.0
36.267750921,2088.0
36.284462190,2124.0
36.301173459,2016.0
36.317884728,1989.0
36.334595997,2046.0
36.351307266,2053.0
36.368018535,2085.0
36.384729804,2010.0
36.401441073,2101.0
36.418152342,2038.0
36.434863611,2079.0
36.451574880,2147.0
36.468286149,2041.0
36.484997418,2088.0
36.501708687,2007.0
36.518419956,2040.0
36.535131225,1939.0
36.551842494,2054.0
36.568553763,1941.0
36.585265032,2051.0
36.601976301,1997.0
36.618687570,2081.0
36.635398839,2021.0
36.652110108,1995.0
36.668821377,1974.0
36.685532646,2015.0
36.702243915,2072.0
36.718955184,2092.0
36.735666453,2057.0
36.752377722,2002.0
36.769088991,2058.0
36.785800260,1995.0
36.802511528,2014.0
36.819222797,2061.0
36.835934066,1989.0
36.852645335,2097.0
36.869356604,2031.0
36.886067873,1947.0
36.902779142,2014.0
36.919490411,2090.0
36.936201680,1985.0
36.952912949,2147.0
36.969624218,2045.0
36.986335487,1977.0
37.003046756,2079.0
37.019758025,2010.0
37.036469294,2059.0
37.053180563,1954.0
37.069891832,1999.0
37.086603101,1977.0
37.103314370,1936.0
37.120025639,1979.0
37.136736908,2082.0
37.153448177,2135.0
37.170159446,2029.0
37.186870715,2072.0
37.203581984,2073.0
37.220293253,2055.0
37.237004522,2100.0
37.253715791,2023.0
37.270427060,2096.0
37.287138329,2041.0
37.303849598,2094.0
37.320560867,2124.0
37.337272136,1948.0
37.353983405,2012.0
37.370694674,1949.0
37.387405943,1978.0
37.404117212,2024.0
37.420828481,2006.0
37.437539750,2066.0
37.454251019,2051.0
37.470962288,2058.0
37.487673557,2114.0
37.504384826,2077.0
37.521096095,2070.0
37.537807364,2055.0
37.554518633,1971.0
37.571229901,2084.0
37.587941170,2063.0
37.604652439,2025.0
37.621363708,2005.0
37.638074977,1957.0
37.654786246,2063.0
37.671497515,2074.0
37.688208784,2012.0
37.704920053,2002.0
37.721631322,2112.0
37.738342591,2041.0
37.755053860,2046.0
37.771765129,2113.0
37.788476398,1988.0
37.805187667,2046.0
37.821898936,1984.0
37.838610205,2063.0
37.855321474,2019.0
37.872032743,1977.0
37.888744012,2050.0
37.905455281,2044.0
37.922166550,1977.0
37.938877819,2028.0
37.955589088,2079.0
37.972300357,2097.0
37.989011626,2074.0
38.005722895,2008.0
38.022434164,1970.0
38.039145433,1995.0
38.055856702,2056.0
38.072567971,2039.0
38.089279240,2043.0
38.105990509,2089.0
38.122701778,2032.0
38.139413047,2052.0
38.156124316,2066.0
38.172835585,2049.0
38.189546854,2157.0
38.206258123,2022.0
38.222969392,2086.0
38.239680661,2114.0
38.256391930,2076.0
38.273103199,2094.0
38.289814468,2037.0
38.306525737,2078.0
38.323237005,2086.0
38.339948274,2048.0
38.356659543,1992.0
38.373370812,2085.0
38.390082081,2004.0
38.406793350,2021.0
38.423504619,1984.0
38.440215888,2071.0
38.456927157,1981.0
38.473638426,2042.0
38.490349695,1999.0
38.507060964,2003.0
38.523772233,1949.0
38.540483502,1973.0
38.557194771,2051.0
38.573906040,2001.0
38.590617309,2027.0
38.607328578,2066.0
38.624039847,1952.0
38.640751116,2031.0
38.657462385,2053.0
38.674173654,2017.0
38.690884923,1930.0
38.707596192,1937.0
38.724307461,2057.0
38.741018730,1989.0
38.757729999,2008.0
38.774441268,2038.0
38.791152537,1989.0
38.807863806,1951.0
38.824575075,1998.0
38.841286344,2036.0
38.857997613,2013.0
38.874708882,2043.0
38.891420151,2037.0
38.908131420,2098.0
38.924842689,2053.0
38.941553958,1983.0
38.958265227,2064.0
38.974976496,2001.0
38.991687765,2027.0
39.008399034,1959.0
39.025110303,2012.0
39.041821572,1922.0
39.058532841,2060.0
39.075244110,1970.0
39.091955378,1959.0
39.108666647,1997.0
39.125377916,2002.0
39.142089185,1993.0
39.158800454,2039.0
39.175511723,1974.0
39.192222992,2070.0
39.208934261,2040.0
39.225645530,1989.0
39.242356799,2030.0
39.259068068,1973.0
39.275779337,2013.0
39.292490606,1984.0
39.309201875,1917.0
39.325913144,1950.0
39.342624413,2003.0
39.359335682,1876.0
39.376046951,2000.0
39.392758220,2027.0
39.409469489,1979.0
39.426180758,2040.0
39.442892027,2027.0
39.459603296,2079.0
39.476314565,1971.0
39.493025834,2107.0
39.509737103,2023.0
39.526448372,2053.0
39.543159641,2057.0
39.559870910,1997.0
39.576582179,2105.0
39.593293448,2072.0
39.610004717,2032.0
39.626715986,1965.0
39.643427255,2003.0
39.660138524,2004.0
39.676849793,2086.0
39.693561062,2104.0
39.710272331,2096.0
39.726983600,2078.0
39.743694869,2134.0
39.760406138,2118.0
39.777117407,2199.0
39.793828676,2334.0
39.810539945,2289.0
39.827251214,2287.0
39.843962482,2309.0
39.860673751,2294.0
39.877385020,2203.0
39.894096289,2157.0
39.910807558,2128.0
39.927518827,2067.0
39.944230096,2165.0
39.960941365,2138.0
39.977652634,2125.0
39.994363903,2015.0
40.011075172,2179.0
40.027786441,2060.0
40.044497710,2128.0
40.061208979,2013.0
40.077920248,2055.0
40.094631517,2079.0
40.111342786,2030.0
40.128054055,2108.0
40.144765324,2037.0
40.161476593,2174.0
40.178187862,2087.0
40.194899131,2052.0
40.211610400,2185.0
40.228321669,2050.0
40.245032938,2003.0
40.261744207,2062.0
40.278455476,2121.0
40.295166745,2086.0
40.311878014,2015.0
40.328589283,2000.0
40.345300552,1892.0
40.362011821,1984.0
40.378723090,1931.0
40.395434359,1953.0
40.412145628,1906.0
40.428856897,1943.0
40.445568166,1979.0
40.462279435,1985.0
40.478990704,2004.0
40.495701973,1957.0
40.512413242,2041.0
40.529124511,2063.0
40.545835780,1964.0
40.562547049,1943.0
40.579258318,1964.0
40.595969587,2048.0
40.612680855,1947.0
40.629392124,2033.0
40.646103393,2012.0
40.662814662,1989.0
40.679525931,2086.0
40.696237200,1952.0
40.712948469,1982.0
40.729659738,2030.0
40.746371007,2031.0
40.763082276,1964.0
40.779793545,1961.0
40.796504814,1973.0
40.813216083,1927.0
40.829927352,1961.0
40.846638621,1985.0
40.863349890,1995.0
40.880061159,1976.0
40.896772428,1990.0
40.913483697,1867.0
40.930194966,2018.0
40.946906235,1981.0
40.963617504,1992.0
40.980328773,1976.0
40.997040042,1997.0
41.013751311,1979.0
41.030462580,2038.0
41.047173849,1910.0
41.063885118,1876.0
41.080596387,1964.0
41.097307656,1992.0
41.114018925,1948.0
41.130730194,1938.0
41.147441463,1896.0
41.164152732,2018.0
41.180864001,2011.0
41.197575270,2000.0
41.214286539,1933.0
41.230997808,1983.0
41.247709077,2008.0
41.264420346,1976.0
41.281131615,1935.0
41.297842884,1975.0
41.314554153,1999.0
41.331265422,1934.0
41.347976691,1934.0
41.364687959,1933.0
41.381399228,2021.0
41.398110497,1933.0
41.414821766,2019.0
41.431533035,2005.0
41.448244304,1959.0
41.464955573,2024.0
41.481666842,1988.0
41.498378111,2034.0
41.515089380,1935.0
41.531800649,1903.0
41.548511918,1903.0
41.565223187,1965.0
41.581934456,2061.0
41.598645725,1961.0
41.615356994,2023.0
41.632068263,1971.0
41.648779532,1976.0
41.665490801,1960.0
41.682202070,1813.0
41.698913339,2009.0
41.715624608,1985.0
41.732335877,1909.0
41.749047146,1960.0
41.765758415,2026.0
41.782469684,2007.0
41.799180953,1953.0
41.815892222,1980.0
41.832603491,1972.0
41.849314760,1973.0
41.866026029,2030.0
41.882737298,2002.0
41.899448567,2083.0
41.916159836,2027.0
41.932871105,2042.0
41.949582374,2005.0
41.966293643,1918.0
41.983004912,2052.0
41.999716181,1973.0
42.016427450,1952.0
42.033138719,2055.0
42.049849988,1982.0
42.066561257,1878.0
42.083272526,1955.0
42.099983795,1937.0
42.116695064,1969.0
42.133406332,1932.0
42.150117601,1943.0
42.166828870,1901.0
42.183540139,1993.0
42.200251408,2030.0
42.216962677,2059.0
42.233673946,1884.0
42.250385215,2014.0
42.267096484,2010.0
42.283807753,1927.0
42.300519022,1960.0
42.317230291,1999.0
42.333941560,2010.0
42.350652829,2000.0
42.367364098,2025.0
42.384075367,1913.0
42.400786636,1975.0
42.417497905,1957.0
42.434209174,1946.0
42.450920443,2053.0
42.467631712,2007.0
42.484342981,1937.0
42.501054250,2022.0
42.517765519,1917.0
42.534476788,2001.0
42.551188057,1958.0
42.567899326,1908.0
42.584610595,1999.0
42.601321864,1961.0
42.618033133,2014.0
42.634744402,2035.0
42.651455671,1962.0
42.668166940,1977.0
42.684878209,1948.0
42.701589478,1942.0
42.718300747,1917.0
42.735012016,1976.0
42.751723285,2061.0
42.768434554,2108.0
42.785145823,1990.0
42.801857092,1992.0
42.818568361,1892.0
42.835279630,1973.0
42.851990899,2031.0
42.868702168,2002.0
42.885413436,2020.0
42.902124705,2023.0
42.918835974,1957.0
42.935547243,2003.0
42.952258512,1964.0
42.968969781,1969.0
42.985681050,1997.0
43.002392319,2015.0
43.019103588,2032.0
43.035814857,1995.0
43.052526126,2051.0
43.069237395,2008.0
43.085948664,2085.0
43.102659933,2106.0
43.119371202,2048.0
43.136082471,2032.0
43.152793740,2057.0
43.169505009,2061.0
43.186216278,2043.0
43.202927547,2035.0
43.219638816,2077.0
43.236350085,2140.0
43.253061354,2092.0
43.269772623,2075.0
43.286483892,2069.0
43.303195161,2015.0
43.319906430,2059.0
43.336617699,2047.0
43.353328968,2032.0
43.370040237,2166.0
43.386751506,2172.0
43.403462775,2087.0
43.420174044,2105.0
43.436885313,2138.0
43.453596582,2086.0
43.470307851,2086.0
43.487019120,2139.0
43.503730389,2156.0
43.520441658,2176.0
43.537152927,2131.0
43.553864196,2170.0
43.570575465,2180.0
43.587286734,2132.0
43.603998003,2249.0
43.620709272,2189.0
43.637420541,2172.0
43.654131809,2183.0
43.670843078,2214.0
43.687554347,2304.0
43.704265616,2284.0
43.720976885,2363.0
43.737688154,2286.0
43.754399423,2344.0
43.771110692,2358.0
43.787821961,2297.0
43.804533230,2377.0
43.821244499,2399.0
43.837955768,2523.0
43.854667037,2525.0
43.871378306,2520.0
43.888089575,2540.0
43.904800844,2627.0
43.921512113,2799.0
43.938223382,2817.0
43.954934651,2817.0
43.971645920,2905.0
43.988357189,2870.0
44.005068458,2992.0
44.021779727,2999.0
44.038490996,3127.0
44.055202265,3365.0
44.071913534,3275.0
44.088624803,3381.0
44.105336072,3666.0
44.122047341,3683.0
44.138758610,3677.0
44.155469879,3981.0
44.172181148,4251.0
44.188892417,4177.0
44.205603686,4438.0
44.222314955,4619.0
44.239026224,4909.0
44.255737493,5183.0
44.272448762,5572.0
44.289160031,5918.0
44.305871300,6243.0
44.322582569,6554.0
44.339293838,7097.0
44.356005107,7447.0
44.372716376,7870.0
44.389427645,8309.0
44.406138913,8946.0
44.422850182,9285.0
44.439561451,9634.0
44.456272720,9784.0
44.472983989,9936.0
44.489695258,10009.0
44.506406527,9904.0
44.523117796,9500.0
44.539829065,9117.0
44.556540334,8838.0
44.573251603,8228.0
44.589962872,7696.0
44.606674141,6959.0
44.623385410,6513.0
44.640096679,6008.0
44.656807948,5439.0
44.673519217,4989.0
44.690230486,4543.0
44.706941755,4086.0
44.723653024,3814.0
44.740364293,3622.0
44.757075562,3258.0
44.773786831,3192.0
44.790498100,2884.0
44.807209369,2836.0
44.823920638,2714.0
44.840631907,2663.0
44.857343176,2592.0
44.874054445,2492.0
44.890765714,2402.0
44.907476983,2315.0
44.924188252,2341.0
44.940899521,2417.0
44.957610790,2322.0
44.974322059,2291.0
44.991033328,2231.0
45.007744597,2117.0
45.024455866,2210.0
45.041167135,2234.0
45.057878404,2132.0
45.074589673,2123.0
45.091300942,2159.0
45.108012211,2149.0
45.124723480,2136.0
45.141434749,2041.0
45.158146018,2174.0
45.174857286,2164.0
45.191568555,2206.0
45.208279824,2144.0
45.224991093,2081.0
45.241702362,2112.0
45.258413631,2077.0
45.275124900,2064.0
45.291836169,2074.0
45.308547438,2131.0
45.325258707,2056.0
45.341969976,2048.0
45.358681245,2119.0
45.375392514,2048.0
45.392103783,2113.0
45.408815052,2119.0
45.425526321,2181.0
45.442237590,2141.0
45.458948859,2270.0
45.475660128,2146.0
45.492371397,2160.0
45.509082666,2151.0
45.525793935,2090.0
45.542505204,2091.0
45.559216473,2043.0
45.575927742,2143.0
45.592639011,2065.0
45.609350280,2059.0
45.626061549,2053.0
45.642772818,2122.0
45.659484087,2119.0
45.676195356,2061.0
45.692906625,2056.0
45.709617894,2120.0
45.726329163,2005.0
45.743040432,2041.0
45.759751701,2015.0
45.776462970,1968.0
45.793174239,2060.0
45.809885508,2037.0
45.826596777,2048.0
45.843308046,2052.0
45.860019315,2044.0
45.876730584,1928.0
45.893441853,2068.0
45.910153122,1985.0
45.926864390,2069.0
45.943575659,1988.0
45.960286928,2084.0
45.976998197,2016.0
45.993709466,2123.0
46.010420735,2043.0
46.027132004,2128.0
46.043843273,2105.0
46.060554542,2214.0
46.077265811,2282.0
46.093977080,2332.0
46.110688349,2366.0
46.127399618,2540.0
46.144110887,2635.0
46.160822156,2864.0
46.177533425,2883.0
46.194244694,3034.0
46.210955963,3239.0
46.227667232,3646.0
46.244378501,3893.0
46.261089770,4401.0
46.277801039,4931.0
46.294512308,5674.0
46.311223577,7367.0
46.327934846,9175.0
46.344646115,7865.0
46.361357384,5542.0
46.378068653,4131.0
46.394779922,3790.0
46.411491191,4032.0
46.428202460,4362.0
46.444913729,5350.0
46.461624998,5371.0
46.478336267,4473.0
46.495047536,3313.0
46.511758805,2931.0
46.528470074,2821.0
46.545181343,2844.0
46.561892612,2934.0
46.578603881,3070.0
46.595315150,3184.0
46.612026419,3258.0
46.628737688,3334.0
46.645448957,3415.0
46.662160226,3494.0
46.678871495,3469.0
46.695582763,3593.0
46.712294032,3486.0
46.729005301,3482.0
46.745716570,3364.0
46.762427839,3339.0
46.779139108,3200.0
46.795850377,2916.0
46.812561646,2913.0
46.829272915,2843.0
46.845984184,2653.0
46.862695453,2577.0
46.879406722,2395.0
46.896117991,2263.0
46.912829260,2203.0
46.929540529,2217.0
46.946251798,2086.0
46.962963067,2092.0
46.979674336,2086.0
46.996385605,2013.0
47.013096874,2069.0
47.029808143,1953.0
47.046519412,1949.0
47.063230681,2037.0
47.079941950,1982.0
47.096653219,1911.0
47.113364488,1870.0
47.130075757,1817.0
47.146787026,1974.0
47.163498295,1979.0
47.180209564,1851.0
47.196920833,1908.0
47.213632102,1934.0
47.230343371,1910.0
47.247054640,1943.0
47.263765909,1916.0
47.280477178,1865.0
47.297188447,1891.0
47.313899716,1931.0
47.330610985,1926.0
47.347322254,1786.0
47.364033523,1902.0
47.380744792,1888.0
47.397456061,1981.0
47.414167330,1873.0
47.430878599,1977.0
47.447589867,1867.0
47.464301136,1917.0
47.481012405,1885.0
47.497723674,1882.0
47.514434943,1934.0
47.531146212,1949.0
47.547857481,1784.0
47.564568750,1879.0
47.581280019,1861.0
47.597991288,1884.0
47.614702557,1818.0
47.631413826,1818.0
47.648125095,1858.0
47.664836364,1905.0
47.681547633,1938.0
47.698258902,1892.0
47.714970171,1933.0
47.731681440,1919.0
47.748392709,1890.0
47.765103978,1866.0
47.781815247,1948.0
47.798526516,1872.0
47.815237785,1883.0
47.831949054,1839.0
47.848660323,1836.0
47.865371592,1870.0
47.882082861,1845.0
47.898794130,1920.0
47.915505399,1820.0
47.932216668,1858.0
47.948927937,1920.0
47.965639206,1904.0
47.982350475,1806.0
47.999061744,1922.0
48.015773013,1914.0
48.032484282,1897.0
48.049195551,1875.0
48.065906820,1911.0
48.082618089,1828.0
48.099329358,1845.0
48.116040627,1850.0
48.132751896,1861.0
48.149463165,1789.0
48.166174434,1839.0
48.182885703,1922.0
48.199596972,1813.0
48.216308240,1744.0
48.233019509,1910.0
48.249730778,1866.0
48.266442047,1853.0
48.283153316,1901.0
48.299864585,1862.0
48.316575854,1891.0
48.333287123,1833.0
48.349998392,1917.0
48.366709661,1874.0
48.383420930,1888.0
48.400132199,1858.0
48.416843468,1909.0
48.433554737,1778.0
48.450266006,1851.0
48.466977275,1886.0
48.483688544,1907.0
48.500399813,1861.0
48.517111082,1882.0
48.533822351,1931.0
48.550533620,1844.0
48.567244889,1868.0
48.583956158,1887.0
48.600667427,1894.0
48.617378696,1819.0
48.634089965,1849.0
48.650801234,1799.0
48.667512503,1835.0
48.684223772,1814.0
48.700935041,1813.0
48.717646310,1880.0
48.734357579,1850.0
48.751068848,1840.0
48.767780117,1798.0
48.784491386,1880.0
48.801202655,1865.0
48.817913924,1811.0
48.834625193,1915.0
48.851336462,1801.0
48.868047731,1840.0
48.884759000,1849.0
48.901470269,1915.0
48.918181538,1826.0
48.934892807,1861.0
48.951604076,1872.0
48.968315344,1866.0
48.985026613,1885.0
49.001737882,1842.0
49.018449151,1840.0
49.035160420,1896.0
49.051871689,1851.0
49.068582958,1894.0
49.085294227,1770.0
49.102005496,1862.0
49.118716765,1851.0
49.135428034,1843.0
49.152139303,1838.0
49.168850572,1872.0
49.185561841,1807.0
49.202273110,1855.0
49.218984379,1868.0
49.235695648,1903.0
49.252406917,1827.0
49.269118186,1898.0
49.285829455,1852.0
49.302540724,1793.0
49.319251993,1866.0
49.335963262,1906.0
49.352674531,1874.0
49.369385800,1887.0
49.386097069,1885.0
49.402808338,1851.0
49.419519607,1885.0
49.436230876,1890.0
49.452942145,1880.0
49.469653414,1842.0
49.486364683,1955.0
49.503075952,1973.0
49.519787221,1880.0
49.536498490,1929.0
49.553209759,2013.0
49.569921028,2053.0
49.586632297,1969.0
49.603343566,2019.0
49.620054835,2046.0
49.636766104,1976.0
49.653477373,1911.0
49.670188642,2007.0
49.686899911,1975.0
49.703611180,1920.0
49.720322449,1911.0
49.737033717,1963.0
49.753744986,1947.0
49.770456255,1858.0
49.787167524,1840.0
49.803878793,1876.0
49.820590062,1872.0
49.837301331,1828.0
49.854012600,1928.0
49.870723869,1844.0
49.887435138,1951.0
49.904146407,1806.0
49.920857676,1839.0
49.937568945,1849.0
49.954280214,1844.0
49.970991483,1878.0
49.987702752,1831.0
50.004414021,1848.0
50.021125290,1805.0
50.037836559,1813.0
50.054547828,1882.0
50.071259097,1853.0
50.087970366,1872.0
50.104681635,1793.0
50.121392904,1818.0
50.138104173,1851.0
50.154815442,1917.0
50.171526711,1845.0
50.188237980,1836.0
50.204949249,1819.0
50.221660518,1892.0
50.238371787,1917.0
50.255083056,1901.0
50.271794325,1898.0
50.288505594,1932.0
50.305216863,1866.0
50.321928132,1881.0
50.338639401,1999.0
50.355350670,1874.0
50.372061939,1938.0
50.388773208,1934.0
50.405484477,1937.0
50.422195746,1935.0
50.438907015,2054.0
50.455618284,2051.0
50.472329553,2043.0
50.489040821,2029.0
50.505752090,2199.0
50.522463359,2117.0
50.539174628,2235.0
50.555885897,2249.0
50.572597166,2265.0
50.589308435,2255.0
50.606019704,2307.0
50.622730973,2304.0
50.639442242,2302.0
50.656153511,2363.0
50.672864780,2249.0
50.689576049,2148.0
50.706287318,2221.0
50.722998587,2197.0
50.739709856,2185.0
50.756421125,2047.0
50.773132394,2053.0
50.789843663,2146.0
50.806554932,2076.0
50.823266201,1980.0
50.839977470,2019.0
50.856688739,2072.0
50.873400008,2038.0
50.890111277,1973.0
50.906822546,1949.0
50.923533815,1962.0
50.940245084,1970.0
50.956956353,1976.0
50.973667622,1991.0
50.990378891,1971.0
51.007090160,1943.0
51.023801429,2001.0
51.040512698,2007.0
51.057223967,1983.0
51.073935236,1976.0
51.090646505,2038.0
51.107357774,1964.0
51.124069043,2027.0
51.140780312,1957.0
51.157491581,2049.0
51.174202850,2131.0
51.190914119,2027.0
51.207625388,2075.0
51.224336657,2043.0
51.241047926,2100.0
51.257759194,2146.0
51.274470463,2124.0
51.291181732,2207.0
51.307893001,2198.0
51.324604270,2203.0
51.341315539,2239.0
51.358026808,2209.0
51.374738077,2290.0
51.391449346,2370.0
51.408160615,2366.0
51.424871884,2422.0
51.441583153,2480.0
51.458294422,2473.0
51.475005691,2535.0
51.491716960,2631.0
51.508428229,2637.0
51.525139498,2791.0
51.541850767,2822.0
51.558562036,2879.0
51.575273305,2967.0
51.591984574,3111.0
51.608695843,3172.0
51.625407112,3211.0
51.642118381,3385.0
51.658829650,3524.0
51.675540919,3654.0
51.692252188,3700.0
51.708963457,3810.0
51.725674726,3974.0
51.742385995,4119.0
51.759097264,4130.0
51.775808533,4127.0
51.792519802,4243.0
51.809231071,4390.0
51.825942340,4392.0
51.842653609,4325.0
51.859364878,4189.0
51.876076147,4190.0
51.892787416,4043.0
51.909498685,3951.0
51.926209954,3844.0
51.942921223,3675.0
51.959632492,3544.0
51.976343761,3446.0
51.993055030,3294.0
52.009766299,3161.0
52.026477567,3022.0
52.043188836,2998.0
52.059900105,2949.0
52.076611374,2691.0
52.093322643,2651.0
52.110033912,2473.0
52.126745181,2485.0
52.143456450,2341.0
52.160167719,2406.0
52.176878988,2269.0
52.193590257,2231.0
52.210301526,2253.0
52.227012795,2087.0
52.243724064,2050.0
52.260435333,2114.0
52.277146602,2022.0
52.293857871,1997.0
52.310569140,1989.0
52.327280409,2059.0
52.343991678,2023.0
52.360702947,2043.0
52.377414216,1906.0
52.394125485,1948.0
52.410836754,1921.0
52.427548023,1926.0
52.444259292,1907.0
52.460970561,1888.0
52.477681830,1928.0
52.494393099,1802.0
52.511104368,1919.0
52.527815637,1926.0
52.544526906,1873.0
52.561238175,1923.0
52.577949444,1843.0
52.594660713,1865.0
52.611371982,1847.0
52.628083251,1849.0
52.644794520,1827.0
52.661505789,1791.0
52.678217058,1798.0
52.694928327,1913.0
52.711639596,1787.0
52.728350865,1714.0
52.745062134,1854.0
52.761773403,1874.0
52.778484671,1786.0
52.795195940,1800.0
52.811907209,1843.0
52.828618478,1838.0
52.845329747,1749.0
52.862041016,1832.0
52.878752285,1722.0
52.895463554,1755.0
52.912174823,1822.0
52.928886092,1719.0
52.945597361,1738.0
52.962308630,1795.0
52.979019899,1765.0
52.995731168,1790.0
53.012442437,1820.0
53.029153706,1695.0
53.045864975,1800.0
53.062576244,1826.0
53.079287513,1794.0
53.095998782,1770.0
53.112710051,1754.0
53.129421320,1807.0
53.146132589,1795.0
53.162843858,1753.0
53.179555127,1739.0
53.196266396,1755.0
53.212977665,1782.0
53.229688934,1790.0
53.246400203,1748.0
53.263111472,1789.0
53.279822741,1731.0
53.296534010,1807.0
53.313245279,1860.0
53.329956548,1763.0
53.346667817,1686.0
53.363379086,1767.0
53.380090355,1782.0
53.396801624,1770.0
53.413512893,1722.0
53.430224162,1680.0
53.446935431,1827.0
53.463646700,1722.0
53.480357969,1756.0
53.497069238,1723.0
53.513780507,1704.0
53.530491776,1806.0
53.547203044,1754.0
53.563914313,1797.0
53.580625582,1767.0
53.597336851,1729.0
53.614048120,1815.0
53.630759389,1645.0
53.647470658,1707.0
53.664181927,1754.0
53.680893196,1812.0
53.697604465,1829.0
53.714315734,1728.0
53.731027003,1728.0
53.747738272,1791.0
53.764449541,1770.0
53.781160810,1724.0
53.797872079,1738.0
53.814583348,1830.0
53.831294617,1756.0
53.848005886,1662.0
53.864717155,1690.0
53.881428424,1743.0
53.898139693,1774.0
53.914850962,1724.0
53.931562231,1712.0
53.948273500,1738.0
53.964984769,1751.0
53.981696038,1684.0
53.998407307,1690.0
54.015118576,1796.0
54.031829845,1781.0
54.048541114,1675.0
54.065252383,1753.0
54.081963652,1656.0
54.098674921,1764.0
54.115386190,1674.0
54.132097459,1708.0
54.148808728,1776.0
54.165519997,1783.0
54.182231266,1793.0
54.198942535,1739.0
54.215653804,1798.0
54.232365073,1728.0
54.249076342,1777.0
54.265787611,1754.0
54.282498880,1766.0
54.299210148,1682.0
54.315921417,1783.0
54.332632686,1673.0
54.349343955,1797.0
54.366055224,1747.0
54.382766493,1676.0
54.399477762,1714.0
54.416189031,1836.0
54.432900300,1712.0
54.449611569,1765.0
54.466322838,1668.0
54.483034107,1698.0
54.499745376,1690.0
54.516456645,1693.0
54.533167914,1649.0
54.549879183,1684.0
54.566590452,1757.0
54.583301721,1815.0
54.600012990,1756.0
54.616724259,1698.0
54.633435528,1727.0
54.650146797,1711.0
54.666858066,1709.0
54.683569335,1722.0
54.700280604,1708.0
54.716991873,1725.0
54.733703142,1712.0
54.750414411,1717.0
54.767125680,1695.0
54.783836949,1755.0
54.800548218,1811.0
54.817259487,1808.0
54.833970756,1778.0
54.850682025,1781.0
54.867393294,1778.0
54.884104563,1714.0
54.900815832,1689.0
54.917527101,1695.0
54.934238370,1673.0
54.950949639,1744.0
54.967660908,1738.0
54.984372177,1638.0
55.001083446,1699.0
55.017794715,1612.0
55.034505984,1731.0
55.051217253,1703.0
55.067928521,1710.0
55.084639790,1741.0
55.101351059,1804.0
55.118062328,1672.0
55.134773597,1710.0
55.151484866,1727.0
55.168196135,1725.0
55.184907404,1751.0
55.201618673,1663.0
55.218329942,1719.0
55.235041211,1706.0
55.251752480,1718.0
55.268463749,1834.0
55.285175018,1746.0
55.301886287,1717.0
55.318597556,1738.0
55.335308825,1710.0
55.352020094,1732.0
55.368731363,1732.0
55.385442632,1705.0
55.402153901,1658.0
55.418865170,1714.0
55.435576439,1704.0
55.452287708,1729.0
55.468998977,1774.0
55.485710246,1728.0
55.502421515,1685.0
55.519132784,1725.0
55.535844053,1698.0
55.552555322,1643.0
55.569266591,1711.0
55.585977860,1752.0
55.602689129,1710.0
55.619400398,1735.0
55.636111667,1638.0
55.652822936,1703.0
55.669534205,1835.0
55.686245474,1701.0
55.702956743,1782.0
55.719668012,1683.0
55.736379281,1741.0
55.753090550,1644.0
55.769801819,1691.0
55.786513088,1629.0
55.803224357,1715.0
55.819935625,1710.0
55.836646894,1712.0
55.853358163,1648.0
55.870069432,1715.0
55.886780701,1685.0
55.903491970,1718.0
55.920203239,1774.0
55.936914508,1708.0
55.953625777,1654.0
55.970337046,1758.0
55.987048315,1686.0
56.003759584,1783.0
56.020470853,1619.0
56.037182122,1699.0
56.053893391,1729.0
56.070604660,1655.0
56.087315929,1682.0
56.104027198,1701.0
56.120738467,1690.0
56.137449736,1770.0
56.154161005,1712.0
56.170872274,1702.0
56.187583543,1650.0
56.204294812,1673.0
56.221006081,1751.0
56.237717350,1712.0
56.254428619,1670.0
56.271139888,1826.0
56.287851157,1685.0
56.304562426,1708.0
56.321273695,1739.0
56.337984964,1710.0
56.354696233,1723.0
56.371407502,1778.0
56.388118771,1652.0
56.404830040,1689.0
56.421541309,1623.0
56.438252578,1723.0
56.454963847,1669.0
56.471675116,1755.0
56.488386385,1656.0
56.505097654,1685.0
56.521808923,1671.0
56.538520192,1678.0
56.555231461,1729.0
56.571942730,1662.0
56.588653998,1687.0
56.605365267,1722.0
56.622076536,1648.0
56.638787805,1715.0
56.655499074,1585.0
56.672210343,1732.0
56.688921612,1726.0
56.705632881,1678.0
56.722344150,1668.0
56.739055419,1715.0
56.755766688,1707.0
56.772477957,1712.0
56.789189226,1688.0
56.805900495,1652.0
56.822611764,1700.0
56.839323033,1702.0
56.856034302,1672.0
56.872745571,1698.0
56.889456840,1717.0
56.906168109,1652.0
56.922879378,1687.0
56.939590647,1692.0
56.956301916,1728.0
56.973013185,1666.0
56.989724454,1683.0
57.006435723,1570.0
57.023146992,1709.0
57.039858261,1709.0
57.056569530,1730.0
57.073280799,1695.0
57.089992068,1735.0
57.106703337,1644.0
57.123414606,1684.0
57.140125875,1782.0
57.156837144,1761.0
57.173548413,1619.0
57.190259682,1656.0
57.206970951,1664.0
57.223682220,1674.0
57.240393489,1676.0
57.257104758,1732.0
57.273816027,1683.0
57.290527296,1645.0
57.307238565,1703.0
57.323949834,1721.0
57.340661102,1716.0
57.357372371,1674.0
57.374083640,1700.0
57.390794909,1642.0
57.407506178,1709.0
57.424217447,1657.0
57.440928716,1660.0
57.457639985,1756.0
57.474351254,1703.0
57.491062523,1770.0
57.507773792,1654.0
57.524485061,1718.0
57.541196330,1700.0
57.557907599,1731.0
57.574618868,1713.0
57.591330137,1682.0
57.608041406,1679.0
57.624752675,1724.0
57.641463944,1637.0
57.658175213,1640.0
57.674886482,1731.0
57.691597751,1563.0
57.708309020,1658.0
57.725020289,1667.0
57.741731558,1672.0
57.758442827,1630.0
57.775154096,1725.0
57.791865365,1735.0
57.808576634,1633.0
57.825287903,1661.0
57.841999172,1761.0
57.858710441,1649.0
57.875421710,1649.0
57.892132979,1679.0
57.908844248,1657.0
57.925555517,1708.0
57.942266786,1635.0
57.958978055,1586.0
57.975689324,1639.0
57.992400593,1729.0
58.009111862,1674.0
58.025823131,1757.0
58.042534400,1561.0
58.059245669,1747.0
58.075956938,1668.0
58.092668207,1653.0
58.109379475,1668.0
58.126090744,1656.0
58.142802013,1705.0
58.159513282,1692.0
58.176224551,1728.0
58.192935820,1764.0
58.209647089,1728.0
58.226358358,1717.0
58.243069627,1742.0
58.259780896,1712.0
58.276492165,1677.0
58.293203434,1789.0
58.309914703,1703.0
58.326625972,1606.0
58.343337241,1727.0
58.360048510,1685.0
58.376759779,1706.0
58.393471048,1656.0
58.410182317,1709.0
58.426893586,1629.0
58.443604855,1695.0
58.460316124,1664.0
58.477027393,1715.0
58.493738662,1680.0
58.510449931,1679.0
58.527161200,1669.0
58.543872469,1695.0
58.560583738,1680.0
58.577295007,1665.0
58.594006276,1646.0
58.610717545,1733.0
58.627428814,1679.0
58.644140083,1692.0
58.660851352,1687.0
58.677562621,1707.0
58.694273890,1688.0
58.710985159,1679.0
58.727696428,1671.0
58.744407697,1712.0
58.761118966,1726.0
58.777830235,1670.0
58.794541504,1704.0
58.811252773,1595.0
58.827964042,1634.0
58.844675311,1666.0
58.861386579,1726.0
58.878097848,1669.0
58.894809117,1646.0
58.911520386,1697.0
58.928231655,1703.0
58.944942924,1733.0
58.961654193,1621.0
58.978365462,1690.0
58.995076731,1648.0
59.011788000,1640.0
59.028499269,1660.0
59.045210538,1682.0
59.061921807,1694.0
59.078633076,1711.0
59.095344345,1689.0
59.112055614,1640.0
59.128766883,1722.0
59.145478152,1750.0
59.162189421,1688.0
59.178900690,1729.0
59.195611959,1651.0
59.212323228,1726.0
59.229034497,1651.0
59.245745766,1696.0
59.262457035,1658.0
59.279168304,1740.0
59.295879573,1704.0
59.312590842,1641.0
59.329302111,1663.0
59.346013380,1651.0
59.362724649,1694.0
59.379435918,1640.0
59.396147187,1593.0
59.412858456,1693.0
59.429569725,1673.0
59.446280994,1668.0
59.462992263,1678.0
59.479703532,1649.0
59.496414801,1734.0
59.513126070,1752.0
59.529837339,1724.0
59.546548608,1780.0
59.563259877,1739.0
59.579971146,1719.0
59.596682415,1637.0
59.613393684,1680.0
59.630104952,1722.0
59.646816221,1729.0
59.663527490,1684.0
59.680238759,1627.0
59.696950028,1708.0
59.713661297,1763.0
59.730372566,1647.0
59.747083835,1702.0
59.763795104,1733.0
59.780506373,1700.0
59.797217642,1726.0
59.813928911,1771.0
59.830640180,1694.0
59.847351449,1678.0
59.864062718,1683.0
59.880773987,1685.0
59.897485256,1713.0
59.914196525,1734.0
59.930907794,1616.0
59.947619063,1639.0
59.964330332,1640.0
59.981041601,1657.0
59.997752870,1714.0
60.014464139,1653.0
60.031175408,1697.0
60.047886677,1658.0
60.064597946,1743.0
60.081309215,1673.0
60.098020484,1729.0
60.114731753,1685.0
60.131443022,1638.0
60.148154291,1698.0
60.164865560,1687.0
60.181576829,1765.0
60.198288098,1705.0
60.214999367,1691.0
60.231710636,1633.0
60.248421905,1676.0
60.265133174,1632.0
60.281844443,1672.0
60.298555712,1671.0
60.315266981,1708.0
60.331978250,1785.0
60.348689519,1655.0
60.365400788,1593.0
60.382112056,1685.0
60.398823325,1688.0
60.415534594,1758.0
60.432245863,1668.0
60.448957132,1750.0
60.465668401,1738.0
60.482379670,1662.0
60.499090939,1742.0
60.515802208,1678.0
60.532513477,1703.0
60.549224746,1699.0
60.565936015,1659.0
60.582647284,1652.0
60.599358553,1797.0
60.616069822,1695.0
60.632781091,1764.0
60.649492360,1689.0
60.666203629,1651.0
60.682914898,1711.0
60.699626167,1734.0
60.716337436,1650.0
60.733048705,1670.0
60.749759974,1715.0
60.766471243,1656.0
60.783182512,1737.0
60.799893781,1645.0
60.816605050,1710.0
60.833316319,1732.0
60.850027588,1686.0
60.866738857,1641.0
60.883450126,1638.0
60.900161395,1688.0
60.916872664,1717.0
60.933583933,1688.0
60.950295202,1675.0
60.967006471,1709.0
60.983717740,1623.0
61.000429009,1701.0
61.017140278,1679.0
61.033851547,1725.0
61.050562816,1675.0
61.067274085,1792.0
61.083985354,1678.0
61.100696623,1717.0
61.117407892,1733.0
61.134119161,1659.0
61.150830429,1637.0
61.167541698,1765.0
61.184252967,1715.0
61.200964236,1718.0
61.217675505,1764.0
61.234386774,1680.0
61.251098043,1763.0
61.267809312,1676.0
61.284520581,1606.0
61.301231850,1662.0
61.317943119,1704.0
61.334654388,1654.0
61.351365657,1630.0
61.368076926,1692.0
61.384788195,1729.0
61.401499464,1723.0
61.418210733,1694.0
61.434922002,1718.0
61.451633271,1780.0
61.468344540,1676.0
61.485055809,1657.0
61.501767078,1742.0
61.518478347,1674.0
61.535189616,1693.0
61.551900885,1731.0
61.568612154,1756.0
61.585323423,1686.0
61.602034692,1701.0
61.618745961,1746.0
61.635457230,1670.0
61.652168499,1619.0
61.668879768,1742.0
61.685591037,1649.0
61.702302306,1683.0
61.719013575,1668.0
61.735724844,1711.0
61.752436113,1725.0
61.769147382,1722.0
61.785858651,1675.0
61.802569920,1719.0
61.819281189,1590.0
61.835992458,1738.0
61.852703727,1698.0
61.869414996,1618.0
61.886126265,1680.0
61.902837533,1672.0
61.919548802,1704.0
61.936260071,1707.0
61.952971340,1679.0
61.969682609,1662.0
61.986393878,1624.0
62.003105147,1685.0
62.019816416,1687.0
62.036527685,1646.0
62.053238954,1639.0
62.069950223,1723.0
62.086661492,1769.0
62.103372761,1691.0
62.120084030,1668.0
62.136795299,1712.0
62.153506568,1680.0
62.170217837,1714.0
62.186929106,1651.0
62.203640375,1745.0
62.220351644,1757.0
62.237062913,1725.0
62.253774182,1706.0
62.270485451,1638.0
62.287196720,1721.0
62.303907989,1651.0
62.320619258,1679.0
62.337330527,1692.0
62.354041796,1676.0
62.370753065,1719.0
62.387464334,1761.0
62.404175603,1669.0
62.420886872,1765.0
62.437598141,1681.0
62.454309410,1685.0
62.471020679,1654.0
62.487731948,1817.0
62.504443217,1650.0
62.521154486,1730.0
62.537865755,1714.0
62.554577024,1678.0
62.571288293,1783.0
62.587999562,1683.0
62.604710831,1739.0
62.621422100,1675.0
62.638133369,1740.0
62.654844638,1633.0
62.671555906,1719.0
62.688267175,1741.0
62.704978444,1688.0
62.721689713,1722.0
62.738400982,1800.0
62.755112251,1632.0
62.771823520,1712.0
62.788534789,1730.0
62.805246058,1741.0
62.821957327,1655.0
62.838668596,1714.0
62.855379865,1654.0
62.872091134,1782.0
62.888802403,1749.0
62.905513672,1744.0
62.922224941,1740.0
62.938936210,1750.0
62.955647479,1697.0
62.972358748,1637.0
62.989070017,1853.0
63.005781286,1681.0
63.022492555,1686.0
63.039203824,1725.0
63.055915093,1706.0
63.072626362,1711.0
63.089337631,1691.0
63.106048900,1682.0
63.122760169,1712.0
63.139471438,1621.0
63.156182707,1743.0
63.172893976,1699.0
63.189605245,1705.0
63.206316514,1677.0
63.223027783,1750.0
63.239739052,1728.0
63.256450321,1656.0
63.273161590,1750.0
63.289872859,1780.0
63.306584128,1745.0
63.323295397,1888.0
63.340006666,1699.0
63.356717935,1689.0
63.373429204,1734.0
63.390140473,1743.0
63.406851742,1653.0
63.423563010,1630.0
63.440274279,1772.0
63.456985548,1830.0
63.473696817,1704.0
63.490408086,1770.0
63.507119355,1787.0
63.523830624,1698.0
63.540541893,1703.0
63.557253162,1781.0
63.573964431,1673.0
63.590675700,1673.0
63.607386969,1722.0
63.624098238,1665.0
63.640809507,1786.0
63.657520776,1695.0
63.674232045,1720.0
63.690943314,1682.0
63.707654583,1745.0
63.724365852,1699.0
63.741077121,1758.0
63.757788390,1683.0
63.774499659,1755.0
63.791210928,1750.0
63.807922197,1705.0
63.824633466,1692.0
63.841344735,1755.0
63.858056004,1852.0
63.874767273,1782.0
63.891478542,1759.0
63.908189811,1705.0
63.924901080,1738.0
63.941612349,1743.0
63.958323618,1714.0
63.975034887,1707.0
63.991746156,1783.0
64.008457425,1737.0
64.025168694,1736.0
64.041879963,1766.0
64.058591232,1742.0
64.075302501,1800.0
64.092013770,1651.0
64.108725039,1750.0
64.125436308,1780.0
64.142147577,1745.0
64.158858846,1697.0
64.175570115,1714.0
64.192281383,1722.0
64.208992652,1821.0
64.225703921,1751.0
64.242415190,1774.0
64.259126459,1847.0
64.275837728,1746.0
64.292548997,1705.0
64.309260266,1739.0
64.325971535,1676.0
64.342682804,1751.0
64.359394073,1726.0
64.376105342,1711.0
64.392816611,1829.0
64.409527880,1757.0
64.426239149,1701.0
64.442950418,1748.0
64.459661687,1679.0
64.476372956,1763.0
64.493084225,1777.0
64.509795494,1684.0
64.526506763,1772.0
64.543218032,1767.0
64.559929301,1753.0
64.576640570,1790.0
64.593351839,1779.0
64.610063108,1764.0
64.626774377,1714.0
64.643485646,1753.0
64.660196915,1760.0
64.676908184,1779.0
64.693619453,1717.0
64.710330722,1732.0
64.727041991,1762.0
64.743753260,1729.0
64.760464529,1767.0
64.777175798,1713.0
64.793887067,1776.0
64.810598336,1734.0
64.827309605,1755.0
64.844020874,1713.0
64.860732143,1799.0
64.877443412,1727.0
64.894154681,1774.0
64.910865950,1725.0
64.927577219,1705.0
64.944288487,1774.0
64.960999756,1713.0
64.977711025,1705.0
64.994422294,1800.0
65.011133563,1749.0
65.027844832,1737.0
65.044556101,1789.0
65.061267370,1867.0
65.077978639,1807.0
65.094689908,1652.0
65.111401177,1741.0
65.128112446,1727.0
65.144823715,1738.0
65.161534984,1731.0
65.178246253,1778.0
65.194957522,1727.0
65.211668791,1834.0
65.228380060,1739.0
65.245091329,1811.0
65.261802598,1774.0
65.278513867,1802.0
65.295225136,1769.0
65.311936405,1711.0
65.328647674,1718.0
65.345358943,1774.0
65.362070212,1734.0
65.378781481,1812.0
65.395492750,1772.0
65.412204019,1816.0
65.428915288,1663.0
65.445626557,1721.0
65.462337826,1818.0
65.479049095,1666.0
65.495760364,1773.0
65.512471633,1815.0
65.529182902,1807.0
65.545894171,1697.0
65.562605440,1651.0
65.579316709,1733.0
65.596027978,1799.0
65.612739247,1795.0
65.629450516,1766.0
65.646161785,1812.0
65.662873054,1851.0
65.679584323,1850.0
65.696295592,1760.0
65.713006860,1760.0
65.729718129,1798.0
65.746429398,1874.0
65.763140667,1735.0
65.779851936,1644.0
65.796563205,1707.0
65.813274474,1729.0
65.829985743,1698.0
65.846697012,1758.0
65.863408281,1790.0
65.880119550,1835.0
65.896830819,1733.0
65.913542088,1774.0
65.930253357,1757.0
65.946964626,1771.0
65.963675895,1770.0
65.980387164,1779.0
65.997098433,1730.0
66.013809702,1843.0
66.030520971,1800.0
66.047232240,1786.0
66.063943509,1742.0
66.080654778,1708.0
66.097366047,1787.0
66.114077316,1752.0
66.130788585,1738.0
66.147499854,1687.0
66.164211123,1897.0
66.180922392,1704.0
66.197633661,1720.0
66.214344930,1645.0
66.231056199,1751.0
66.247767468,1735.0
66.264478737,1714.0
66.281190006,1669.0
66.297901275,1775.0
66.314612544,1775.0
66.331323813,1777.0
66.348035082,1728.0
66.364746351,1816.0
66.381457620,1665.0
66.398168889,1740.0
66.414880158,1719.0
66.431591427,1693.0
66.448302696,1725.0
66.465013964,1695.0
66.481725233,1716.0
66.498436502,1723.0
66.515147771,1745.0
66.531859040,1759.0
66.548570309,1774.0
66.565281578,1784.0
66.581992847,1769.0
66.598704116,1662.0
66.615415385,1820.0
66.632126654,1801.0
66.648837923,1847.0
66.665549192,1816.0
66.682260461,1762.0
66.698971730,1756.0
66.715682999,1740.0
66.732394268,1760.0
66.749105537,1840.0
66.765816806,1717.0
66.782528075,1768.0
66.799239344,1738.0
66.815950613,1793.0
66.832661882,1756.0
66.849373151,1793.0
66.866084420,1676.0
66.882795689,1790.0
66.899506958,1762.0
66.916218227,1770.0
66.932929496,1815.0
66.949640765,1737.0
66.966352034,1698.0
66.983063303,1789.0
66.999774572,1729.0
67.016485841,1819.0
67.033197110,1814.0
67.049908379,1804.0
67.066619648,1737.0
67.083330917,1767.0
67.100042186,1779.0
67.116753455,1770.0
67.133464724,1675.0
67.150175993,1690.0
67.166887262,1752.0
67.183598531,1711.0
67.200309800,1821.0
67.217021069,1725.0
67.233732337,1809.0
67.250443606,1728.0
67.267154875,1815.0
67.283866144,1736.0
67.300577413,1848.0
67.317288682,1805.0
67.333999951,1769.0
67.350711220,1801.0
67.367422489,1676.0
67.384133758,1792.0
67.400845027,1767.0
67.417556296,1827.0
67.434267565,1789.0
67.450978834,1800.0
67.467690103,1707.0
67.484401372,1738.0
67.501112641,1698.0
67.517823910,1724.0
67.534535179,1702.0
67.551246448,1757.0
67.567957717,1807.0
67.584668986,1852.0
67.601380255,1704.0
67.618091524,1714.0
67.634802793,1750.0
67.651514062,1783.0
67.668225331,1751.0
67.684936600,1736.0
67.701647869,1839.0
67.718359138,1841.0
67.735070407,1777.0
67.751781676,1704.0
67.768492945,1760.0
67.785204214,1758.0
67.801915483,1757.0
67.818626752,1806.0
67.835338021,1728.0
67.852049290,1724.0
67.868760559,1839.0
67.885471828,1799.0
67.902183097,1671.0
67.918894366,1757.0
67.935605635,1842.0
67.952316904,1734.0
67.969028173,1735.0
67.985739441,1783.0
68.002450710,1735.0
68.019161979,1857.0
68.035873248,1723.0
68.052584517,1735.0
68.069295786,1795.0
68.086007055,1774.0
68.102718324,1805.0
68.119429593,1750.0
68.136140862,1838.0
68.152852131,1683.0
68.169563400,1784.0
68.186274669,1707.0
68.202985938,1830.0
68.219697207,1755.0
68.236408476,1757.0
68.253119745,1782.0
68.269831014,1729.0
68.286542283,1773.0
68.303253552,1866.0
68.319964821,1742.0
68.336676090,1780.0
68.353387359,1771.0
68.370098628,1776.0
68.386809897,1728.0
68.403521166,1783.0
68.420232435,1693.0
68.436943704,1742.0
68.453654973,1816.0
68.470366242,1714.0
68.487077511,1698.0
68.503788780,1694.0
68.520500049,1762.0
68.537211318,1769.0
68.553922587,1777.0
68.570633856,1699.0
68.587345125,1822.0
68.604056394,1814.0
68.620767663,1644.0
68.637478932,1811.0
68.654190201,1782.0
68.670901470,1752.0
68.687612739,1806.0
68.704324008,1775.0
68.721035277,1817.0
68.737746546,1783.0
68.754457814,1777.0
68.771169083,1705.0
68.787880352,1694.0
68.804591621,1796.0
68.821302890,1761.0
68.838014159,1836.0
68.854725428,1721.0
68.871436697,1736.0
68.888147966,1737.0
68.904859235,1731.0
68.921570504,1736.0
68.938281773,1762.0
68.954993042,1732.0
68.971704311,1784.0
68.988415580,1795.0
69.005126849,1685.0
69.021838118,1776.0
69.038549387,1793.0
69.055260656,1737.0
69.071971925,1690.0
69.088683194,1687.0
69.105394463,1713.0
69.122105732,1817.0
69.138817001,1723.0
69.155528270,1747.0
69.172239539,1720.0
69.188950808,1787.0
69.205662077,1820.0
69.222373346,1748.0
69.239084615,1731.0
69.255795884,1706.0
69.272507153,1788.0
69.289218422,1745.0
69.305929691,1782.0
69.322640960,1678.0
69.339352229,1783.0
69.356063498,1723.0
69.372774767,1758.0
69.389486036,1684.0
69.406197305,1789.0
69.422908574,1716.0
69.439619843,1706.0
69.456331112,1746.0
69.473042381,1673.0
69.489753650,1686.0
69.506464919,1672.0
69.523176187,1707.0
69.539887456,1712.0
69.556598725,1720.0
69.573309994,1696.0
69.590021263,1687.0
69.606732532,1764.0
69.623443801,1738.0
69.640155070,1738.0
69.656866339,1720.0
69.673577608,1755.0
69.690288877,1688.0
69.707000146,1685.0
69.723711415,1800.0
69.740422684,1715.0
69.757133953,1708.0
69.773845222,1732.0
69.790556491,1756.0
69.807267760,1843.0
69.823979029,1672.0
69.840690298,1706.0
69.857401567,1708.0
69.874112836,1782.0
69.890824105,1795.0
69.907535374,1718.0
69.924246643,1740.0
69.940957912,1661.0
69.957669181,1656.0
69.974380450,1644.0
69.991091719,1706.0
70.007802988,1716.0
70.024514257,1749.0
70.041225526,1660.0
70.057936795,1730.0
70.074648064,1798.0
70.091359333,1727.0
70.108070602,1731.0
70.124781871,1757.0
70.141493140,1678.0
70.158204409,1645.0
70.174915678,1741.0
70.191626947,1723.0
70.208338216,1732.0
70.225049485,1630.0
70.241760754,1632.0
70.258472023,1791.0
70.275183291,1722.0
70.291894560,1754.0
70.308605829,1751.0
70.325317098,1672.0
70.342028367,1740.0
70.358739636,1671.0
70.375450905,1756.0
70.392162174,1701.0
70.408873443,1722.0
70.425584712,1670.0
70.442295981,1729.0
70.459007250,1693.0
70.475718519,1666.0
70.492429788,1702.0
70.509141057,1645.0
70.525852326,1746.0
70.542563595,1807.0
70.559274864,1652.0
70.575986133,1644.0
70.592697402,1728.0
70.609408671,1618.0
70.626119940,1752.0
70.642831209,1624.0
70.659542478,1734.0
70.676253747,1647.0
70.692965016,1721.0
70.709676285,1686.0
70.726387554,1650.0
70.743098823,1666.0
70.759810092,1737.0
70.776521361,1758.0
70.793232630,1729.0
70.809943899,1692.0
70.826655168,1647.0
70.843366437,1641.0
70.860077706,1661.0
70.876788975,1732.0
70.893500244,1691.0
70.910211513,1699.0
70.926922782,1695.0
70.943634051,1654.0
70.960345320,1673.0
70.977056589,1759.0
70.993767858,1663.0
71.010479127,1685.0
71.027190396,1776.0
71.043901664,1683.0
71.060612933,1722.0
71.077324202,1660.0
71.094035471,1713.0
71.110746740,1686.0
71.127458009,1669.0
71.144169278,1668.0
71.160880547,1745.0
71.177591816,1665.0
71.194303085,1730.0
71.211014354,1696.0
71.227725623,1650.0
71.244436892,1668.0
71.261148161,1647.0
71.277859430,1650.0
71.294570699,1671.0
71.311281968,1770.0
71.327993237,1675.0
71.344704506,1694.0
71.361415775,1656.0
71.378127044,1709.0
71.394838313,1684.0
71.411549582,1725.0
71.428260851,1722.0
71.444972120,1706.0
71.461683389,1650.0
71.478394658,1617.0
71.495105927,1686.0
71.511817196,1638.0
71.528528465,1640.0
71.545239734,1661.0
71.561951003,1692.0
71.578662272,1710.0
71.595373541,1616.0
71.612084810,1637.0
71.628796079,1554.0
71.645507348,1607.0
71.662218617,1687.0
71.678929886,1738.0
71.695641155,1597.0
71.712352424,1727.0
71.729063693,1627.0
71.745774962,1641.0
71.762486231,1776.0
71.779197500,1686.0
71.795908768,1615.0
71.812620037,1621.0
71.829331306,1659.0
71.846042575,1644.0
71.862753844,1613.0
71.879465113,1671.0
71.896176382,1659.0
71.912887651,1719.0
71.929598920,1711.0
71.946310189,1683.0
71.963021458,1546.0
71.979732727,1670.0
71.996443996,1620.0
72.013155265,1594.0
72.029866534,1586.0
72.046577803,1602.0
72.063289072,1666.0
72.080000341,1682.0
72.096711610,1635.0
72.113422879,1652.0
72.130134148,1751.0
72.146845417,1618.0
72.163556686,1738.0
72.180267955,1636.0
72.196979224,1663.0
72.213690493,1612.0
72.230401762,1702.0
72.247113031,1721.0
72.263824300,1643.0
72.280535569,1647.0
72.297246838,1688.0
72.313958107,1679.0
72.330669376,1640.0
72.347380645,1630.0
72.364091914,1662.0
72.380803183,1670.0
72.397514452,1727.0
72.414225721,1650.0
72.430936990,1634.0
72.447648259,1633.0
72.464359528,1643.0
72.481070797,1656.0
72.497782066,1626.0
72.514493335,1659.0
72.531204604,1586.0
72.547915873,1594.0
72.564627141,1645.0
72.581338410,1625.0
72.598049679,1628.0
72.614760948,1672.0
72.631472217,1703.0
72.648183486,1627.0
72.664894755,1633.0
72.681606024,1701.0
72.698317293,1720.0
72.715028562,1612.0
72.731739831,1599.0
72.748451100,1660.0
72.765162369,1633.0
72.781873638,1647.0
72.798584907,1650.0
72.815296176,1679.0
72.832007445,1696.0
72.848718714,1651.0
72.865429983,1559.0
72.882141252,1615.0
72.898852521,1630.0
72.915563790,1621.0
72.932275059,1620.0
72.948986328,1637.0
72.965697597,1636.0
72.982408866,1606.0
72.999120135,1594.0
73.015831404,1599.0
73.032542673,1636.0
73.049253942,1608.0
73.065965211,1592.0
73.082676480,1659.0
73.099387749,1606.0
73.116099018,1585.0
73.132810287,1623.0
73.149521556,1510.0
73.166232825,1601.0
73.182944094,1635.0
73.199655363,1631.0
73.216366632,1626.0
73.233077901,1623.0
73.249789170,1583.0
73.266500439,1581.0
73.283211708,1632.0
73.299922977,1624.0
73.316634245,1639.0
73.333345514,1611.0
73.350056783,1648.0
73.366768052,1668.0
73.383479321,1691.0
73.400190590,1642.0
73.416901859,1637.0
73.433613128,1615.0
73.450324397,1671.0
73.467035666,1629.0
73.483746935,1639.0
73.500458204,1643.0
73.517169473,1641.0
73.533880742,1669.0
73.550592011,1639.0
73.567303280,1650.0
73.584014549,1553.0
73.600725818,1617.0
73.617437087,1706.0
73.634148356,1609.0
73.650859625,1602.0
73.667570894,1674.0
73.684282163,1634.0
73.700993432,1624.0
73.717704701,1635.0
73.734415970,1610.0
73.751127239,1634.0
73.767838508,1588.0
73.784549777,1601.0
73.801261046,1622.0
73.817972315,1589.0
73.834683584,1619.0
73.851394853,1544.0
73.868106122,1548.0
73.884817391,1683.0
73.901528660,1598.0
73.918239929,1535.0
73.934951198,1633.0
73.951662467,1592.0
73.968373736,1527.0
73.985085005,1618.0
74.001796274,1610.0
74.018507543,1633.0
74.035218812,1682.0
74.051930081,1606.0
74.068641350,1618.0
74.085352618,1547.0
74.102063887,1650.0
74.118775156,1597.0
74.135486425,1620.0
74.152197694,1565.0
74.168908963,1553.0
74.185620232,1600.0
74.202331501,1567.0
74.219042770,1620.0
74.235754039,1613.0
74.252465308,1683.0
74.269176577,1648.0
74.285887846,1593.0
74.302599115,1586.0
74.319310384,1681.0
74.336021653,1626.0
74.352732922,1576.0
74.369444191,1667.0
74.386155460,1577.0
74.402866729,1620.0
74.419577998,1586.0
74.436289267,1587.0
74.453000536,1626.0
74.469711805,1607.0
74.486423074,1620.0
74.503134343,1615.0
74.519845612,1590.0
74.536556881,1617.0
74.553268150,1577.0
74.569979419,1575.0
74.586690688,1557.0
74.603401957,1577.0
74.620113226,1640.0
74.636824495,1620.0
74.653535764,1642.0
74.670247033,1660.0
74.686958302,1629.0
74.703669571,1582.0
74.720380840,1633.0
74.737092109,1626.0
74.753803378,1595.0
74.770514647,1608.0
74.787225916,1660.0
74.803937185,1558.0
74.820648454,1692.0
74.837359722,1589.0
74.854070991,1670.0
74.870782260,1578.0
74.887493529,1553.0
74.904204798,1583.0
74.920916067,1537.0
74.937627336,1668.0
74.954338605,1736.0
74.971049874,1557.0
74.987761143,1545.0
75.004472412,1622.0
75.021183681,1594.0
75.037894950,1650.0
75.054606219,1581.0
75.071317488,1531.0
75.088028757,1696.0
75.104740026,1635.0
75.121451295,1634.0
75.138162564,1559.0
75.154873833,1621.0
75.171585102,1556.0
75.188296371,1605.0
75.205007640,1608.0
75.221718909,1613.0
75.238430178,1657.0
75.255141447,1577.0
75.271852716,1633.0
75.288563985,1624.0
75.305275254,1618.0
75.321986523,1679.0
75.338697792,1608.0
75.355409061,1644.0
75.372120330,1673.0
75.388831599,1622.0
75.405542868,1662.0
75.422254137,1620.0
75.438965406,1601.0
75.455676675,1663.0
75.472387944,1609.0
75.489099213,1658.0
75.505810482,1685.0
75.522521751,1638.0
75.539233020,1638.0
75.555944289,1763.0
75.572655558,1675.0
75.589366827,1672.0
75.606078095,1598.0
75.622789364,1668.0
75.639500633,1712.0
75.656211902,1694.0
75.672923171,1715.0
75.689634440,1708.0
75.706345709,1719.0
75.723056978,1631.0
75.739768247,1668.0
75.756479516,1650.0
75.773190785,1701.0
75.789902054,1719.0
75.806613323,1755.0
75.823324592,1718.0
75.840035861,1793.0
75.856747130,1853.0
75.873458399,1730.0
75.890169668,1761.0
75.906880937,1820.0
75.923592206,1832.0
75.940303475,1821.0
75.957014744,1787.0
75.973726013,1809.0
75.990437282,1862.0
76.007148551,1812.0
76.023859820,1891.0
76.040571089,1903.0
76.057282358,1853.0
76.073993627,1941.0
76.090704896,1908.0
76.107416165,1950.0
76.124127434,1951.0
76.140838703,1943.0
76.157549972,2019.0
76.174261241,1972.0
76.190972510,2066.0
76.207683779,2002.0
76.224395048,2113.0
76.241106317,2144.0
76.257817586,2139.0
76.274528855,2169.0
76.291240124,2092.0
76.307951393,2137.0
76.324662662,2126.0
76.341373931,2149.0
76.358085199,2123.0
76.374796468,2131.0
76.391507737,2120.0
76.408219006,2193.0
76.424930275,2134.0
76.441641544,2052.0
76.458352813,2064.0
76.475064082,2082.0
76.491775351,2012.0
76.508486620,2124.0
76.525197889,1966.0
76.541909158,1909.0
76.558620427,1911.0
76.575331696,2055.0
76.592042965,1895.0
76.608754234,1899.0
76.625465503,1848.0
76.642176772,1852.0
76.658888041,1979.0
76.675599310,1784.0
76.692310579,1806.0
76.709021848,1713.0
76.725733117,1777.0
76.742444386,1643.0
76.759155655,1730.0
76.775866924,1668.0
76.792578193,1742.0
76.809289462,1715.0
76.826000731,1673.0
76.842712000,1602.0
76.859423269,1662.0
76.876134538,1582.0
76.892845807,1609.0
76.909557076,1592.0
76.926268345,1607.0
76.942979614,1624.0
76.959690883,1519.0
76.976402152,1591.0
76.993113421,1564.0
77.009824690,1612.0
77.026535959,1474.0
77.043247228,1567.0
77.059958497,1495.0
77.076669766,1566.0
77.093381035,1569.0
77.110092304,1565.0
77.126803572,1579.0
77.143514841,1574.0
77.160226110,1557.0
77.176937379,1587.0
77.193648648,1489.0
77.210359917,1493.0
77.227071186,1560.0
77.243782455,1485.0
77.260493724,1480.0
77.277204993,1481.0
77.293916262,1501.0
77.310627531,1503.0
77.327338800,1532.0
77.344050069,1521.0
77.360761338,1460.0
77.377472607,1539.0
77.394183876,1500.0
77.410895145,1588.0
77.427606414,1519.0
77.444317683,1582.0
77.461028952,1505.0
77.477740221,1534.0
77.494451490,1479.0
77.511162759,1456.0
77.527874028,1542.0
77.544585297,1509.0
77.561296566,1452.0
77.578007835,1503.0
77.594719104,1507.0
77.611430373,1501.0
77.628141642,1502.0
77.644852911,1545.0
77.661564180,1615.0
77.678275449,1435.0
77.694986718,1473.0
77.711697987,1503.0
77.728409256,1512.0
77.745120525,1494.0
77.761831794,1509.0
77.778543063,1507.0
77.795254332,1556.0
77.811965601,1478.0
77.828676870,1474.0
77.845388139,1528.0
77.862099408,1537.0
77.878810676,1542.0
77.895521945,1503.0
77.912233214,1458.0
77.928944483,1529.0
77.945655752,1550.0
77.962367021,1489.0
77.979078290,1486.0
77.995789559,1486.0
78.012500828,1433.0
78.029212097,1474.0
78.045923366,1493.0
78.062634635,1584.0
78.079345904,1496.0
78.096057173,1528.0
78.112768442,1531.0
78.129479711,1487.0
78.146190980,1428.0
78.162902249,1515.0
78.179613518,1517.0
78.196324787,1468.0
78.213036056,1543.0
78.229747325,1522.0
78.246458594,1516.0
78.263169863,1465.0
78.279881132,1478.0
78.296592401,1451.0
78.313303670,1478.0
78.330014939,1501.0
78.346726208,1528.0
78.363437477,1442.0
78.380148746,1471.0
78.396860015,1514.0
78.413571284,1490.0
78.430282553,1458.0
78.446993822,1499.0
78.463705091,1514.0
78.480416360,1508.0
78.497127629,1492.0
78.513838898,1450.0
78.530550167,1530.0
78.547261436,1468.0
78.563972705,1449.0
78.580683974,1421.0
78.597395243,1495.0
78.614106512,1461.0
78.630817781,1424.0
78.647529049,1523.0
78.664240318,1495.0
78.680951587,1430.0
78.697662856,1507.0
78.714374125,1388.0
78.731085394,1415.0
78.747796663,1416.0
78.764507932,1473.0
78.781219201,1545.0
78.797930470,1572.0
78.814641739,1532.0
78.831353008,1473.0
78.848064277,1411.0
78.864775546,1410.0
78.881486815,1455.0
78.898198084,1514.0
78.914909353,1437.0
78.931620622,1377.0
78.948331891,1470.0
78.965043160,1424.0
78.981754429,1456.0
78.998465698,1407.0
79.015176967,1405.0
79.031888236,1474.0
79.048599505,1541.0
79.065310774,1475.0
79.082022043,1522.0
79.098733312,1463.0
79.115444581,1451.0
79.132155850,1421.0
79.148867119,1472.0
79.165578388,1397.0
79.182289657,1466.0
79.199000926,1429.0
79.215712195,1392.0
79.232423464,1400.0
79.249134733,1497.0
79.265846002,1486.0
79.282557271,1448.0
79.299268540,1512.0
79.315979809,1486.0
79.332691078,1403.0
79.349402347,1446.0
79.366113616,1517.0
79.382824885,1471.0
79.399536153,1436.0
79.416247422,1443.0
79.432958691,1461.0
79.449669960,1421.0
79.466381229,1438.0
79.483092498,1425.0
79.499803767,1442.0
79.516515036,1440.0
79.533226305,1427.0
79.549937574,1520.0
79.566648843,1494.0
79.583360112,1506.0
79.600071381,1505.0
79.616782650,1433.0
79.633493919,1432.0
79.650205188,1369.0
79.666916457,1485.0
79.683627726,1423.0
79.700338995,1358.0
79.717050264,1464.0
79.733761533,1487.0
79.750472802,1433.0
79.767184071,1448.0
79.783895340,1377.0
79.800606609,1403.0
79.817317878,1415.0
79.834029147,1449.0
79.850740416,1420.0
79.867451685,1408.0
79.884162954,1459.0
79.900874223,1458.0
79.917585492,1523.0
79.934296761,1374.0
79.951008030,1393.0
79.967719299,1444.0
79.984430568,1504.0
80.001141837,1427.0
80.017853106,1433.0
80.034564375,1542.0
80.051275644,1427.0
80.067986913,1387.0
80.084698182,1367.0
80.101409451,1417.0
80.118120720,1396.0
80.134831989,1456.0
80.151543258,1435.0
80.168254526,1445.0
80.184965795,1411.0
80.201677064,1407.0
80.218388333,1398.0
80.235099602,1406.0
80.251810871,1513.0
80.268522140,1463.0
80.285233409,1369.0
80.301944678,1460.0
80.318655947,1488.0
80.335367216,1350.0
80.352078485,1423.0
80.368789754,1434.0
80.385501023,1446.0
80.402212292,1417.0
80.418923561,1415.0
80.435634830,1388.0
80.452346099,1483.0
80.469057368,1448.0
80.485768637,1445.0
80.502479906,1441.0
80.519191175,1452.0
80.535902444,1448.0
80.552613713,1428.0
80.569324982,1403.0
80.586036251,1499.0
80.602747520,1454.0
80.619458789,1430.0
80.636170058,1405.0
80.652881327,1424.0
80.669592596,1435.0
80.686303865,1449.0
80.703015134,1342.0
80.719726403,1436.0
80.736437672,1469.0
80.753148941,1408.0
80.769860210,1416.0
80.786571479,1425.0
80.803282748,1448.0
80.819994017,1358.0
80.836705286,1404.0
80.853416555,1429.0
80.870127824,1359.0
80.886839093,1448.0
80.903550362,1431.0
80.920261630,1449.0
80.936972899,1392.0
80.953684168,1409.0
80.970395437,1507.0
80.987106706,1481.0
81.003817975,1346.0
81.020529244,1440.0
81.037240513,1461.0
81.053951782,1455.0
81.070663051,1410.0
81.087374320,1424.0
81.104085589,1362.0
81.120796858,1424.0
81.137508127,1381.0
81.154219396,1425.0
81.170930665,1396.0
81.187641934,1402.0
81.204353203,1477.0
81.221064472,1477.0
81.237775741,1463.0
81.254487010,1388.0
81.271198279,1432.0
81.287909548,1382.0
81.304620817,1439.0
81.321332086,1409.0
81.338043355,1367.0
81.354754624,1418.0
81.371465893,1415.0
81.388177162,1364.0
81.404888431,1389.0
81.421599700,1464.0
81.438310969,1387.0
81.455022238,1404.0
81.471733507,1356.0
81.488444776,1426.0
81.505156045,1420.0
81.521867314,1358.0
81.538578583,1360.0
81.555289852,1423.0
81.572001121,1380.0
81.588712390,1393.0
81.605423659,1366.0
81.622134928,1404.0
81.638846197,1420.0
81.655557466,1375.0
81.672268735,1459.0
81.688980003,1427.0
81.705691272,1392.0
81.722402541,1355.0
81.739113810,1365.0
81.755825079,1374.0
81.772536348,1449.0
81.789247617,1402.0
81.805958886,1450.0
81.822670155,1389.0
81.839381424,1415.0
81.856092693,1358.0
81.872803962,1408.0
81.889515231,1456.0
81.906226500,1340.0
81.922937769,1420.0
81.939649038,1442.0
81.956360307,1411.0
81.973071576,1430.0
81.989782845,1461.0
82.006494114,1382.0
82.023205383,1351.0
82.039916652,1461.0
82.056627921,1357.0
82.073339190,1411.0
82.090050459,1360.0
82.106761728,1312.0
82.123472997,1387.0
82.140184266,1417.0
82.156895535,1326.0
82.173606804,1423.0
82.190318073,1315.0
82.207029342,1356.0
82.223740611,1399.0
82.240451880,1364.0
82.257163149,1429.0
82.273874418,1363.0
82.290585687,1452.0
82.307296956,1410.0
82.324008225,1372.0
82.340719494,1379.0
82.357430763,1326.0
82.374142032,1376.0
82.390853301,1330.0
82.407564570,1367.0
82.424275839,1377.0
82.440987107,1398.0
82.457698376,1445.0
82.474409645,1363.0
82.491120914,1382.0
82.507832183,1407.0
82.524543452,1346.0
82.541254721,1408.0
82.557965990,1370.0
82.574677259,1355.0
82.591388528,1406.0
82.608099797,1338.0
82.624811066,1359.0
82.641522335,1397.0
82.658233604,1367.0
82.674944873,1425.0
82.691656142,1406.0
82.708367411,1400.0
82.725078680,1346.0
82.741789949,1389.0
82.758501218,1406.0
82.775212487,1419.0
82.791923756,1388.0
82.808635025,1438.0
82.825346294,1405.0
82.842057563,1408.0
82.858768832,1428.0
82.875480101,1336.0
82.892191370,1306.0
82.908902639,1382.0
82.925613908,1346.0
82.942325177,1368.0
82.959036446,1352.0
82.975747715,1414.0
82.992458984,1407.0
83.009170253,1379.0
83.025881522,1359.0
83.042592791,1369.0
83.059304060,1369.0
83.076015329,1366.0
83.092726598,1315.0
83.109437867,1385.0
83.126149136,1384.0
83.142860405,1342.0
83.159571674,1413.0
83.176282943,1469.0
83.192994212,1427.0
83.209705480,1460.0
83.226416749,1301.0
83.243128018,1412.0
83.259839287,1411.0
83.276550556,1377.0
83.293261825,1401.0
83.309973094,1372.0
83.326684363,1351.0
83.343395632,1376.0
83.360106901,1368.0
83.376818170,1307.0
83.393529439,1341.0
83.410240708,1333.0
83.426951977,1376.0
83.443663246,1312.0
83.460374515,1394.0
83.477085784,1343.0
83.493797053,1434.0
83.510508322,1342.0
83.527219591,1412.0
83.543930860,1327.0
83.560642129,1378.0
83.577353398,1392.0
83.594064667,1394.0
83.610775936,1400.0
83.627487205,1439.0
83.644198474,1387.0
83.660909743,1346.0
83.677621012,1351.0
83.694332281,1402.0
83.711043550,1405.0
83.727754819,1324.0
83.744466088,1349.0
83.761177357,1409.0
83.777888626,1458.0
83.794599895,1335.0
83.811311164,1385.0
83.828022433,1380.0
83.844733702,1367.0
83.861444971,1383.0
83.878156240,1394.0
83.894867509,1425.0
83.911578778,1413.0
83.928290047,1330.0
83.945001316,1301.0
83.961712584,1337.0
83.978423853,1465.0
83.995135122,1308.0
84.011846391,1354.0
84.028557660,1327.0
84.045268929,1411.0
84.061980198,1351.0
84.078691467,1304.0
84.095402736,1397.0
84.112114005,1380.0
84.128825274,1430.0
84.145536543,1335.0
84.162247812,1337.0
84.178959081,1374.0
84.195670350,1489.0
84.212381619,1344.0
84.229092888,1376.0
84.245804157,1373.0
84.262515426,1345.0
84.279226695,1386.0
84.295937964,1292.0
84.312649233,1360.0
84.329360502,1356.0
84.346071771,1299.0
84.362783040,1331.0
84.379494309,1308.0
84.396205578,1349.0
84.412916847,1333.0
84.429628116,1305.0
84.446339385,1362.0
84.463050654,1370.0
84.479761923,1320.0
84.496473192,1343.0
84.513184461,1320.0
84.529895730,1324.0
84.546606999,1325.0
84.563318268,1354.0
84.580029537,1295.0
84.596740806,1334.0
84.613452075,1401.0
84.630163344,1249.0
84.646874613,1336.0
84.663585882,1382.0
84.680297151,1425.0
84.697008420,1314.0
84.713719689,1335.0
84.730430957,1345.0
84.747142226,1312.0
84.763853495,1310.0
84.780564764,1379.0
84.797276033,1376.0
84.813987302,1344.0
84.830698571,1311.0
84.847409840,1326.0
84.864121109,1399.0
84.880832378,1365.0
84.897543647,1398.0
84.914254916,1373.0
84.930966185,1354.0
84.947677454,1368.0
84.964388723,1395.0
84.981099992,1362.0
84.997811261,1363.0
85.014522530,1305.0
85.031233799,1347.0
85.047945068,1337.0
85.064656337,1373.0
85.081367606,1350.0
85.098078875,1308.0
85.114790144,1330.0
85.131501413,1360.0
85.148212682,1380.0
85.164923951,1304.0
85.181635220,1340.0
85.198346489,1391.0
85.215057758,1376.0
85.231769027,1302.0
85.248480296,1392.0
85.265191565,1284.0
85.281902834,1338.0
85.298614103,1360.0
85.315325372,1311.0
85.332036641,1361.0
85.348747910,1337.0
85.365459179,1399.0
85.382170448,1368.0
85.398881717,1387.0
85.415592986,1290.0
85.432304255,1266.0
85.449015524,1346.0
85.465726793,1315.0
85.482438061,1369.0
85.499149330,1354.0
85.515860599,1369.0
85.532571868,1329.0
85.549283137,1358.0
85.565994406,1331.0
85.582705675,1299.0
85.599416944,1290.0
85.616128213,1419.0
85.632839482,1294.0
85.649550751,1310.0
85.666262020,1320.0
85.682973289,1354.0
85.699684558,1355.0
85.716395827,1380.0
85.733107096,1314.0
85.749818365,1331.0
85.766529634,1314.0
85.783240903,1310.0
85.799952172,1360.0
85.816663441,1297.0
85.833374710,1404.0
85.850085979,1352.0
85.866797248,1286.0
85.883508517,1311.0
85.900219786,1341.0
85.916931055,1389.0
85.933642324,1356.0
85.950353593,1387.0
85.967064862,1329.0
85.983776131,1307.0
86.000487400,1313.0
86.017198669,1338.0
86.033909938,1417.0
86.050621207,1361.0
86.067332476,1323.0
86.084043745,1321.0
86.100755014,1338.0
86.117466283,1344.0
86.134177552,1340.0
86.150888821,1275.0
86.167600090,1293.0
86.184311359,1321.0
86.201022628,1249.0
86.217733897,1334.0
86.234445166,1320.0
86.251156434,1341.0
86.267867703,1303.0
86.284578972,1280.0
86.301290241,1327.0
86.318001510,1277.0
86.334712779,1393.0
86.351424048,1324.0
86.368135317,1372.0
86.384846586,1316.0
86.401557855,1333.0
86.418269124,1283.0
86.434980393,1322.0
86.451691662,1348.0
86.468402931,1315.0
86.485114200,1307.0
86.501825469,1369.0
86.518536738,1409.0
86.535248007,1343.0
86.551959276,1349.0
86.568670545,1303.0
86.585381814,1259.0
86.602093083,1325.0
86.618804352,1337.0
86.635515621,1241.0
86.652226890,1301.0
86.668938159,1350.0
86.685649428,1349.0
86.702360697,1306.0
86.719071966,1348.0
86.735783235,1407.0
86.752494504,1312.0
86.769205773,1322.0
86.785917042,1346.0
86.802628311,1294.0
86.819339580,1286.0
86.836050849,1375.0
86.852762118,1367.0
86.869473387,1214.0
86.886184656,1352.0
86.902895925,1308.0
86.919607194,1272.0
86.936318463,1323.0
86.953029732,1324.0
86.969741001,1316.0
86.986452270,1305.0
87.003163539,1324.0
87.019874807,1314.0
87.036586076,1350.0
87.053297345,1325.0
87.070008614,1354.0
87.086719883,1286.0
87.103431152,1371.0
87.120142421,1292.0
87.136853690,1311.0
87.153564959,1277.0
87.170276228,1334.0
87.186987497,1238.0
87.203698766,1369.0
87.220410035,1270.0
87.237121304,1362.0
87.253832573,1280.0
87.270543842,1349.0
87.287255111,1376.0
87.303966380,1313.0
87.320677649,1329.0
87.337388918,1330.0
87.354100187,1298.0
87.370811456,1298.0
87.387522725,1222.0
87.404233994,1307.0
87.420945263,1320.0
87.437656532,1366.0
87.454367801,1344.0
87.471079070,1275.0
87.487790339,1383.0
87.504501608,1305.0
87.521212877,1289.0
87.537924146,1288.0
87.554635415,1269.0
87.571346684,1239.0
87.588057953,1331.0
87.604769222,1295.0
87.621480491,1278.0
87.638191760,1347.0
87.654903029,1236.0
87.671614298,1262.0
87.688325567,1257.0
87.705036836,1334.0
87.721748105,1318.0
87.738459374,1298.0
87.755170643,1264.0
87.771881911,1285.0
87.788593180,1387.0
87.805304449,1268.0
87.822015718,1272.0
87.838726987,1345.0
87.855438256,1271.0
87.872149525,1333.0
87.888860794,1290.0
87.905572063,1338.0
87.922283332,1247.0
87.938994601,1292.0
87.955705870,1297.0
87.972417139,1269.0
87.989128408,1351.0
88.005839677,1253.0
88.022550946,1361.0
88.039262215,1276.0
88.055973484,1317.0
88.072684753,1271.0
88.089396022,1287.0
88.106107291,1305.0
88.122818560,1236.0
88.139529829,1325.0
88.156241098,1287.0
88.172952367,1322.0
88.189663636,1333.0
88.206374905,1311.0
88.223086174,1309.0
88.239797443,1298.0
88.256508712,1321.0
88.273219981,1269.0
88.289931250,1282.0
88.306642519,1292.0
88.323353788,1268.0
88.340065057,1350.0
88.356776326,1337.0
88.373487595,1323.0
88.390198864,1303.0
88.406910133,1315.0
88.423621402,1231.0
88.440332671,1287.0
88.457043940,1344.0
88.473755209,1286.0
88.490466478,1311.0
88.507177747,1322.0
88.523889016,1315.0
88.540600284,1293.0
88.557311553,1325.0
88.574022822,1299.0
88.590734091,1281.0
88.607445360,1279.0
88.624156629,1346.0
88.640867898,1319.0
88.657579167,1362.0
88.674290436,1325.0
88.691001705,1327.0
88.707712974,1307.0
88.724424243,1299.0
88.741135512,1295.0
88.757846781,1282.0
88.774558050,1300.0
88.791269319,1270.0
88.807980588,1271.0
88.824691857,1316.0
88.841403126,1275.0
88.858114395,1320.0
88.874825664,1294.0
88.891536933,1283.0
88.908248202,1328.0
88.924959471,1283.0
88.941670740,1277.0
88.958382009,1329.0
88.975093278,1330.0
88.991804547,1314.0
89.008515816,1269.0
89.025227085,1331.0
89.041938354,1334.0
89.058649623,1327.0
89.075360892,1355.0
89.092072161,1332.0
89.108783430,1269.0
89.125494699,1309.0
89.142205968,1284.0
89.158917237,1275.0
89.175628506,1289.0
89.192339775,1232.0
89.209051044,1291.0
89.225762313,1352.0
89.242473582,1251.0
89.259184851,1248.0
89.275896120,1352.0
89.292607388,1331.0
89.309318657,1318.0
89.326029926,1259.0
89.342741195,1299.0
89.359452464,1368.0
89.376163733,1339.0
89.392875002,1349.0
89.409586271,1323.0
89.426297540,1289.0
89.443008809,1332.0
89.459720078,1278.0
89.476431347,1360.0
89.493142616,1320.0
89.509853885,1234.0
89.526565154,1370.0
89.543276423,1253.0
89.559987692,1273.0
89.576698961,1278.0
89.593410230,1299.0
89.610121499,1344.0
89.626832768,1307.0
89.643544037,1257.0
89.660255306,1290.0
89.676966575,1315.0
89.693677844,1262.0
89.710389113,1276.0
89.727100382,1320.0
89.743811651,1328.0
89.760522920,1369.0
89.777234189,1307.0
89.793945458,1325.0
89.810656727,1289.0
89.827367996,1346.0
89.844079265,1319.0
89.860790534,1297.0
89.877501803,1293.0
89.894213072,1341.0
89.910924341,1300.0
89.927635610,1324.0
89.944346879,1305.0
89.961058148,1308.0
89.977769417,1342.0
89.994480686,1217.0
90.011191955,1291.0
90.027903224,1219.0
90.044614493,1342.0
90.061325761,1280.0
90.078037030,1266.0
90.094748299,1303.0
90.111459568,1301.0
90.128170837,1298.0
90.144882106,1296.0
90.161593375,1297.0
90.178304644,1337.0
90.195015913,1328.0
90.211727182,1306.0
90.228438451,1352.0
90.245149720,1294.0
90.261860989,1285.0
90.278572258,1326.0
90.295283527,1269.0
90.311994796,1290.0
90.328706065,1272.0
90.345417334,1371.0
90.362128603,1300.0
90.378839872,1256.0
90.395551141,1270.0
90.412262410,1289.0
90.428973679,1292.0
90.445684948,1250.0
90.462396217,1257.0
90.479107486,1302.0
90.495818755,1293.0
90.512530024,1286.0
90.529241293,1297.0
90.545952562,1318.0
90.562663831,1293.0
90.579375100,1263.0
90.596086369,1229.0
90.612797638,1318.0
90.629508907,1343.0
90.646220176,1266.0
90.662931445,1244.0
90.679642714,1331.0
90.696353983,1323.0
90.713065252,1234.0
90.729776521,1295.0
90.746487790,1343.0
90.763199059,1295.0
90.779910328,1333.0
90.796621597,1369.0
90.813332865,1341.0
90.830044134,1311.0
90.846755403,1344.0
90.863466672,1365.0
90.880177941,1309.0
90.896889210,1339.0
90.913600479,1281.0
90.930311748,1297.0
90.947023017,1302.0
90.963734286,1351.0
90.980445555,1257.0
90.997156824,1338.0
91.013868093,1255.0
91.030579362,1325.0
91.047290631,1338.0
91.064001900,1345.0
91.080713169,1264.0
91.097424438,1313.0
91.114135707,1280.0
91.130846976,1324.0
91.147558245,1260.0
91.164269514,1313.0
91.180980783,1329.0
91.197692052,1253.0
91.214403321,1278.0
91.231114590,1376.0
91.247825859,1289.0
91.264537128,1334.0
91.281248397,1299.0
91.297959666,1303.0
91.314670935,1254.0
91.331382204,1308.0
91.348093473,1282.0
91.364804742,1321.0
91.381516011,1341.0
91.398227280,1371.0
91.414938549,1325.0
91.431649818,1304.0
91.448361087,1341.0
91.465072356,1347.0
91.481783625,1310.0
91.498494894,1405.0
91.515206163,1412.0
91.531917432,1292.0
91.548628701,1318.0
91.565339970,1368.0
91.582051238,1373.0
91.598762507,1381.0
91.615473776,1332.0
91.632185045,1335.0
91.648896314,1380.0
91.665607583,1309.0
91.682318852,1375.0
91.699030121,1349.0
91.715741390,1276.0
91.732452659,1436.0
91.749163928,1347.0
91.765875197,1401.0
91.782586466,1378.0
91.799297735,1327.0
91.816009004,1318.0
91.832720273,1352.0
91.849431542,1319.0
91.866142811,1335.0
91.882854080,1393.0
91.899565349,1407.0
91.916276618,1330.0
91.932987887,1349.0
91.949699156,1399.0
91.966410425,1341.0
91.983121694,1368.0
91.999832963,1404.0
92.016544232,1331.0
92.033255501,1346.0
92.049966770,1460.0
92.066678039,1353.0
92.083389308,1329.0
92.100100577,1349.0
92.116811846,1409.0
92.133523115,1422.0
92.150234384,1341.0
92.166945653,1429.0
92.183656922,1501.0
92.200368191,1453.0
92.217079460,1380.0
92.233790729,1439.0
92.250501998,1480.0
92.267213267,1460.0
92.283924536,1469.0
92.300635805,1406.0
92.317347074,1423.0
92.334058342,1545.0
92.350769611,1521.0
92.367480880,1444.0
92.384192149,1490.0
92.400903418,1428.0
92.417614687,1475.0
92.434325956,1508.0
92.451037225,1507.0
92.467748494,1499.0
92.484459763,1545.0
92.501171032,1601.0
92.517882301,1633.0
92.534593570,1627.0
92.551304839,1655.0
92.568016108,1594.0
92.584727377,1626.0
92.601438646,1635.0
92.618149915,1653.0
92.634861184,1677.0
92.651572453,1730.0
92.668283722,1708.0
92.684994991,1724.0
92.701706260,1780.0
92.718417529,1751.0
92.735128798,1728.0
92.751840067,1737.0
92.768551336,1820.0
92.785262605,1845.0
92.801973874,1860.0
92.818685143,1804.0
92.835396412,1833.0
92.852107681,1754.0
92.868818950,1738.0
92.885530219,1783.0
92.902241488,1793.0
92.918952757,1761.0
92.935664026,1754.0
92.952375295,1869.0
92.969086564,1714.0
92.985797833,1830.0
93.002509102,1731.0
93.019220371,1751.0
93.035931640,1662.0
93.052642909,1675.0
93.069354178,1677.0
93.086065447,1676.0
93.102776715,1597.0
93.119487984,1647.0
93.136199253,1672.0
93.152910522,1686.0
93.169621791,1626.0
93.186333060,1638.0
93.203044329,1628.0
93.219755598,1560.0
93.236466867,1501.0
93.253178136,1579.0
93.269889405,1529.0
93.286600674,1530.0
93.303311943,1446.0
93.320023212,1428.0
93.336734481,1487.0
93.353445750,1450.0
93.370157019,1435.0
93.386868288,1350.0
93.403579557,1407.0
93.420290826,1392.0
93.437002095,1436.0
93.453713364,1426.0
93.470424633,1415.0
93.487135902,1372.0
93.503847171,1391.0
93.520558440,1414.0
93.537269709,1402.0
93.553980978,1385.0
93.570692247,1369.0
93.587403516,1338.0
93.604114785,1366.0
93.620826054,1283.0
93.637537323,1286.0
93.654248592,1335.0
93.670959861,1292.0
93.687671130,1313.0
93.704382399,1345.0
93.721093668,1337.0
93.737804937,1300.0
93.754516206,1302.0
93.771227475,1316.0
93.787938744,1324.0
93.804650013,1316.0
93.821361282,1415.0
93.838072551,1271.0
93.854783819,1315.0
93.871495088,1296.0
93.888206357,1382.0
93.904917626,1224.0
93.921628895,1350.0
93.938340164,1258.0
93.955051433,1278.0
93.971762702,1318.0
93.988473971,1278.0
94.005185240,1317.0
94.021896509,1343.0
94.038607778,1336.0
94.055319047,1252.0
94.072030316,1282.0
94.088741585,1231.0
94.105452854,1253.0
94.122164123,1339.0
94.138875392,1206.0
94.155586661,1219.0
94.172297930,1247.0
94.189009199,1303.0
94.205720468,1313.0
94.222431737,1332.0
94.239143006,1162.0
94.255854275,1342.0
94.272565544,1267.0
94.289276813,1323.0
94.305988082,1242.0
94.322699351,1238.0
94.339410620,1262.0
94.356121889,1287.0
94.372833158,1213.0
94.389544427,1272.0
94.406255696,1258.0
94.422966965,1251.0
94.439678234,1318.0
94.456389503,1238.0
94.473100772,1231.0
94.489812041,1263.0
94.506523310,1281.0
94.523234579,1318.0
94.539945848,1292.0
94.556657117,1304.0
94.573368386,1291.0
94.590079655,1290.0
94.606790924,1271.0
94.623502192,1218.0
94.640213461,1291.0
94.656924730,1260.0
94.673635999,1266.0
94.690347268,1290.0
94.707058537,1309.0
94.723769806,1276.0
94.740481075,1311.0
94.757192344,1308.0
94.773903613,1294.0
94.790614882,1228.0
94.807326151,1220.0
94.824037420,1339.0
94.840748689,1276.0
94.857459958,1238.0
94.874171227,1179.0
94.890882496,1248.0
94.907593765,1274.0
94.924305034,1265.0
94.941016303,1268.0
94.957727572,1221.0
94.974438841,1289.0
94.991150110,1322.0
