5,245513e+002;3,182406e-001
5,264797e+002;1,195372e-001
5,284083e+002;9,898951e-002
5,303367e+002;4,968813e-002
5,322653e+002;-3,230478e-002
5,341937e+002;-1,874697e-002
5,361223e+002;5,421632e-002
5,380507e+002;7,607425e-002
5,399792e+002;4,153319e-002
5,419077e+002;9,676886e-003
5,438362e+002;1,742190e-002
5,457647e+002;3,693542e-002
5,476932e+002;3,703049e-002
5,496217e+002;3,421985e-002
5,515502e+002;2,063191e-002
5,534787e+002;1,627070e-002
5,554072e+002;3,509185e-002
5,573357e+002;3,650890e-002
5,592642e+002;4,651694e-003
5,611927e+002;2,766706e-003
5,631212e+002;1,510638e-002
5,650497e+002;3,306385e-002
5,669782e+002;4,478532e-002
5,689067e+002;2,951234e-002
5,708352e+002;1,850746e-002
5,727637e+002;2,181050e-002
5,746922e+002;4,655251e-002
5,766207e+002;5,712818e-002
5,785492e+002;3,030945e-002
5,804777e+002;3,777075e-002
5,824062e+002;3,600877e-002
5,843347e+002;2,947163e-002
5,862632e+002;3,529084e-002
5,881917e+002;3,390040e-002
5,901202e+002;3,213071e-002
5,920486e+002;3,461345e-002
5,939772e+002;3,117274e-002
5,959056e+002;2,876168e-002
5,978342e+002;2,972826e-002
5,997626e+002;2,925888e-002
6,016912e+002;2,900830e-002
6,036196e+002;2,681698e-002
6,055482e+002;2,055662e-002
6,074766e+002;2,344134e-002
6,094052e+002;2,742570e-002
6,113336e+002;2,399887e-002
6,132621e+002;2,004205e-002
6,151906e+002;2,652920e-002
6,171191e+002;3,377539e-002
6,190476e+002;3,048542e-002
6,209761e+002;2,748697e-002
6,229046e+002;2,446473e-002
6,248331e+002;2,784830e-002
6,267616e+002;2,942954e-002
6,286901e+002;2,945266e-002
6,306186e+002;2,674654e-002
6,325471e+002;2,569938e-002
6,344756e+002;2,836479e-002
6,364041e+002;2,870819e-002
6,383326e+002;2,758533e-002
6,402611e+002;2,590947e-002
6,421896e+002;2,403469e-002
6,441181e+002;2,268675e-002
6,460466e+002;2,224696e-002
6,479751e+002;2,134507e-002
6,499036e+002;2,010920e-002
6,518321e+002;2,226593e-002
6,537606e+002;2,467662e-002
6,556891e+002;2,469100e-002
6,576176e+002;2,466035e-002
6,595461e+002;2,529389e-002
6,614745e+002;2,596593e-002
6,634031e+002;2,516133e-002
6,653315e+002;2,549950e-002
6,672601e+002;2,617622e-002
6,691885e+002;2,509676e-002
6,711171e+002;2,511874e-002
6,730455e+002;2,568750e-002
6,749741e+002;2,643908e-002
6,769025e+002;2,651600e-002
6,788311e+002;2,759027e-002
6,807595e+002;2,871343e-002
6,826880e+002;2,815580e-002
6,846165e+002;2,680828e-002
6,865450e+002;2,662540e-002
6,884735e+002;2,751422e-002
6,904020e+002;2,741084e-002
6,923305e+002;2,689266e-002
6,942590e+002;2,722541e-002
6,961875e+002;2,818490e-002
6,981160e+002;2,915111e-002
7,000445e+002;2,940188e-002
7,019730e+002;2,981935e-002
7,039015e+002;3,060622e-002
7,058300e+002;3,114451e-002
7,077585e+002;3,124846e-002
7,096870e+002;2,892839e-002
7,116155e+002;2,476578e-002
7,135440e+002;2,008688e-002
7,154725e+002;1,880326e-002
7,174010e+002;2,062059e-002
7,193295e+002;2,039539e-002
7,212580e+002;1,991593e-002
7,231865e+002;2,123017e-002
7,251150e+002;2,368772e-002
7,270435e+002;2,557681e-002
7,289720e+002;2,553331e-002
7,309005e+002;2,538233e-002
7,328290e+002;2,639581e-002
7,347574e+002;2,739231e-002
7,366860e+002;2,708013e-002
7,386144e+002;2,555552e-002
7,405430e+002;2,481328e-002
7,424714e+002;2,463204e-002
7,444000e+002;2,250299e-002
7,463284e+002;1,920453e-002
7,482570e+002;1,883115e-002
7,501854e+002;2,077036e-002
7,521140e+002;2,122791e-002
7,540424e+002;1,983432e-002
7,559709e+002;1,864648e-002
7,578994e+002;1,826072e-002
7,598279e+002;1,842113e-002
7,617564e+002;1,851911e-002
7,636849e+002;1,885087e-002
7,656134e+002;2,021401e-002
7,675419e+002;2,248927e-002
7,694704e+002;2,260381e-002
7,713989e+002;2,037650e-002
7,733274e+002;1,779331e-002
7,752559e+002;1,584405e-002
7,771844e+002;1,357683e-002
7,791129e+002;1,151513e-002
7,810414e+002;1,039510e-002
7,829699e+002;1,024058e-002
7,848984e+002;1,060729e-002
7,868269e+002;1,124745e-002
7,887554e+002;1,202508e-002
7,906839e+002;1,342937e-002
7,926124e+002;1,395892e-002
7,945409e+002;1,381154e-002
7,964694e+002;1,372296e-002
7,983979e+002;1,365057e-002
8,003264e+002;1,453575e-002
8,022549e+002;1,516813e-002
8,041833e+002;1,546558e-002
8,061119e+002;1,516930e-002
8,080403e+002;1,457145e-002
8,099689e+002;1,448295e-002
8,118973e+002;1,596854e-002
8,138259e+002;1,729565e-002
8,157543e+002;1,728296e-002
8,176829e+002;1,653675e-002
8,196113e+002;1,604458e-002
8,215399e+002;1,562221e-002
8,234683e+002;1,531714e-002
8,253969e+002;1,591320e-002
8,273253e+002;1,776401e-002
8,292538e+002;1,897162e-002
8,311823e+002;1,877271e-002
8,331108e+002;1,696787e-002
8,350393e+002;1,483910e-002
8,369678e+002;1,384852e-002
8,388963e+002;1,541717e-002
8,408248e+002;1,782783e-002
8,427533e+002;1,931710e-002
8,446818e+002;1,910695e-002
8,466103e+002;1,856334e-002
8,485388e+002;1,750396e-002
8,504673e+002;1,667500e-002
8,523958e+002;1,550768e-002
8,543243e+002;1,470298e-002
8,562528e+002;1,438437e-002
8,581813e+002;1,433399e-002
8,601098e+002;1,414613e-002
8,620383e+002;1,375446e-002
8,639668e+002;1,340210e-002
8,658953e+002;1,340070e-002
8,678238e+002;1,353946e-002
8,697523e+002;1,791308e-002
8,716808e+002;2,090403e-002
8,736093e+002;1,655981e-002
8,755378e+002;1,428995e-002
8,774662e+002;1,415944e-002
8,793948e+002;1,473794e-002
8,813232e+002;1,508720e-002
8,832518e+002;1,476519e-002
8,851802e+002;1,485508e-002
8,871088e+002;1,578361e-002
8,890372e+002;1,595809e-002
8,909658e+002;1,625026e-002
8,928942e+002;1,713490e-002
8,948228e+002;1,759701e-002
8,967512e+002;1,735593e-002
8,986797e+002;1,653630e-002
9,006082e+002;1,658997e-002
9,025367e+002;1,691326e-002
9,044652e+002;1,660226e-002
9,063937e+002;1,596101e-002
9,083222e+002;1,633073e-002
9,102507e+002;1,727217e-002
9,121792e+002;1,755029e-002
9,141077e+002;1,786992e-002
9,160362e+002;1,830050e-002
9,179647e+002;1,827727e-002
9,198932e+002;1,814052e-002
9,218217e+002;1,790735e-002
9,237502e+002;1,750979e-002
9,256787e+002;1,756561e-002
9,276072e+002;1,842379e-002
9,295357e+002;1,878025e-002
9,314642e+002;1,862206e-002
9,333927e+002;1,857420e-002
9,353212e+002;1,884329e-002
9,372497e+002;1,940350e-002
9,391782e+002;1,942470e-002
9,411067e+002;1,947956e-002
9,430352e+002;1,957515e-002
9,449637e+002;1,969998e-002
9,468922e+002;1,951300e-002
9,488207e+002;1,966760e-002
9,507491e+002;2,007695e-002
9,526777e+002;2,049010e-002
9,546061e+002;2,057413e-002
9,565347e+002;2,033119e-002
9,584631e+002;2,021634e-002
9,603917e+002;2,047930e-002
9,623201e+002;2,081353e-002
9,642487e+002;2,156547e-002
9,661771e+002;2,291960e-002
9,681057e+002;2,482664e-002
9,700341e+002;2,619783e-002
9,719626e+002;2,621029e-002
9,738911e+002;2,536986e-002
9,758196e+002;2,303614e-002
9,777481e+002;2,042224e-002
9,796766e+002;1,827513e-002
9,816051e+002;1,707986e-002
9,835336e+002;1,690337e-002
9,854621e+002;1,715558e-002
9,873906e+002;1,713435e-002
9,893191e+002;1,687568e-002
9,912476e+002;1,663940e-002
9,931761e+002;1,657255e-002
9,951046e+002;1,643736e-002
9,970331e+002;1,607728e-002
9,989616e+002;1,594070e-002
1,000890e+003;1,570513e-002
1,002819e+003;1,533399e-002
1,004747e+003;1,464207e-002
1,006676e+003;1,383008e-002
1,008604e+003;1,324610e-002
1,010533e+003;1,281620e-002
1,012461e+003;1,276000e-002
1,014390e+003;1,290111e-002
1,016318e+003;1,324217e-002
1,018247e+003;1,363751e-002
1,020175e+003;1,418813e-002
1,022104e+003;1,448634e-002
1,024032e+003;1,465517e-002
1,025961e+003;1,521610e-002
1,027889e+003;1,492517e-002
1,029818e+003;1,438862e-002
1,031746e+003;1,525886e-002
1,033675e+003;1,756934e-002
1,035603e+003;1,947568e-002
1,037531e+003;2,083742e-002
1,039460e+003;2,160621e-002
1,041389e+003;2,240916e-002
1,043317e+003;2,352179e-002
1,045245e+003;2,453814e-002
1,047174e+003;2,530604e-002
1,049103e+003;2,551890e-002
1,051031e+003;2,522976e-002
1,052959e+003;2,444062e-002
1,054888e+003;2,378119e-002
1,056817e+003;2,413546e-002
1,058745e+003;2,475694e-002
1,060673e+003;2,598256e-002
1,062602e+003;2,675313e-002
1,064531e+003;2,635641e-002
1,066459e+003;2,513840e-002
1,068387e+003;2,463257e-002
1,070316e+003;2,463453e-002
1,072245e+003;2,422629e-002
1,074173e+003;2,341735e-002
1,076101e+003;2,349807e-002
1,078030e+003;2,448812e-002
1,079958e+003;2,482075e-002
1,081887e+003;2,373832e-002
1,083815e+003;2,200426e-002
1,085744e+003;2,072310e-002
1,087672e+003;2,011905e-002
1,089601e+003;1,984264e-002
1,091529e+003;1,960555e-002
1,093458e+003;1,982541e-002
1,095386e+003;2,069453e-002
1,097315e+003;2,138708e-002
1,099243e+003;2,222760e-002
1,101172e+003;2,323062e-002
1,103100e+003;2,364269e-002
1,105029e+003;2,421540e-002
1,106957e+003;2,480202e-002
1,108886e+003;2,571143e-002
1,110814e+003;2,578358e-002
1,112743e+003;2,511660e-002
1,114671e+003;2,548457e-002
1,116600e+003;2,607171e-002
1,118528e+003;2,608687e-002
1,120457e+003;2,586315e-002
1,122385e+003;2,501656e-002
1,124314e+003;2,526516e-002
1,126242e+003;2,670305e-002
1,128171e+003;2,518169e-002
1,130099e+003;2,224769e-002
1,132028e+003;2,220818e-002
1,133956e+003;2,251579e-002
1,135885e+003;2,313926e-002
1,137813e+003;2,318113e-002
1,139742e+003;2,048385e-002
1,141670e+003;1,992933e-002
1,143599e+003;2,128358e-002
1,145527e+003;2,094968e-002
1,147456e+003;2,179448e-002
1,149384e+003;2,372306e-002
1,151313e+003;2,485405e-002
1,153241e+003;2,377822e-002
1,155170e+003;2,322049e-002
1,157098e+003;2,216124e-002
1,159027e+003;1,993689e-002
1,160955e+003;1,860753e-002
1,162884e+003;1,822641e-002
1,164812e+003;1,782459e-002
1,166741e+003;1,650622e-002
1,168669e+003;1,551623e-002
1,170598e+003;1,506610e-002
1,172526e+003;1,483928e-002
1,174455e+003;1,502065e-002
1,176383e+003;1,520238e-002
1,178312e+003;1,501249e-002
1,180240e+003;1,506548e-002
1,182169e+003;1,500000e-002
1,184097e+003;1,446120e-002
1,186026e+003;1,374765e-002
1,187954e+003;1,389145e-002
1,189883e+003;1,489390e-002
1,191811e+003;1,585752e-002
1,193740e+003;1,658611e-002
1,195668e+003;1,736851e-002
1,197597e+003;1,764446e-002
1,199525e+003;1,716365e-002
1,201454e+003;1,653314e-002
1,203382e+003;1,576979e-002
1,205311e+003;1,467635e-002
1,207239e+003;1,328391e-002
1,209168e+003;1,183457e-002
1,211096e+003;1,030159e-002
1,213025e+003;8,725105e-003
1,214953e+003;7,811265e-003
1,216882e+003;6,992874e-003
1,218810e+003;6,291315e-003
1,220739e+003;6,612347e-003
1,222667e+003;6,666481e-003
1,224596e+003;6,357009e-003
1,226524e+003;5,977071e-003
1,228453e+003;6,286440e-003
1,230381e+003;8,313606e-003
1,232310e+003;1,023712e-002
1,234238e+003;1,021691e-002
1,236167e+003;1,003810e-002
1,238095e+003;1,044944e-002
1,240024e+003;1,166317e-002
1,241952e+003;1,332160e-002
1,243881e+003;1,477314e-002
1,245809e+003;1,606710e-002
1,247738e+003;1,665782e-002
1,249666e+003;1,678468e-002
1,251595e+003;1,660945e-002
1,253523e+003;1,569297e-002
1,255452e+003;1,475138e-002
1,257380e+003;1,417437e-002
1,259309e+003;1,310617e-002
1,261237e+003;1,191279e-002
1,263166e+003;1,137885e-002
1,265094e+003;1,132219e-002
1,267023e+003;1,096324e-002
1,268951e+003;1,059592e-002
1,270880e+003;1,063113e-002
1,272808e+003;1,124269e-002
1,274737e+003;1,182970e-002
1,276665e+003;1,231503e-002
1,278594e+003;1,230689e-002
1,280522e+003;1,173713e-002
1,282451e+003;1,090795e-002
1,284379e+003;1,023427e-002
1,286308e+003;9,885878e-003
1,288236e+003;9,300940e-003
1,290165e+003;8,922648e-003
1,292093e+003;8,644653e-003
1,294022e+003;8,163976e-003
1,295950e+003;8,047544e-003
1,297879e+003;7,968567e-003
1,299807e+003;7,740662e-003
1,301736e+003;7,453817e-003
1,303664e+003;6,991662e-003
1,305593e+003;6,377754e-003
1,307521e+003;5,987351e-003
1,309450e+003;5,551486e-003
1,311378e+003;5,298548e-003
1,313307e+003;4,610301e-003
1,315235e+003;3,902514e-003
1,317164e+003;3,710249e-003
1,319092e+003;3,645690e-003
1,321021e+003;3,230159e-003
1,322949e+003;2,889469e-003
1,324878e+003;2,895673e-003
1,326806e+003;2,817594e-003
1,328735e+003;2,778444e-003
1,330663e+003;2,952248e-003
1,332592e+003;2,994117e-003
1,334520e+003;2,962290e-003
1,336449e+003;3,015236e-003
1,338377e+003;3,003092e-003
1,340306e+003;3,085976e-003
1,342234e+003;3,138738e-003
1,344163e+003;3,143143e-003
1,346091e+003;3,295358e-003
1,348020e+003;3,609037e-003
1,349948e+003;3,824120e-003
1,351877e+003;4,152732e-003
1,353805e+003;4,273780e-003
1,355734e+003;4,313668e-003
1,357662e+003;4,485544e-003
1,359591e+003;4,566937e-003
1,361519e+003;4,899764e-003
1,363448e+003;5,403376e-003
1,365376e+003;5,688031e-003
1,367305e+003;5,673629e-003
1,369233e+003;5,805074e-003
1,371161e+003;6,021416e-003
1,373090e+003;6,080886e-003
1,375019e+003;6,210741e-003
1,376947e+003;6,728058e-003
1,378875e+003;7,547467e-003
1,380804e+003;8,158810e-003
1,382733e+003;8,263858e-003
1,384661e+003;7,936576e-003
1,386589e+003;7,970255e-003
1,388518e+003;8,531505e-003
1,390447e+003;8,652157e-003
1,392375e+003;8,476226e-003
1,394303e+003;7,413606e-003
1,396232e+003;6,610361e-003
1,398161e+003;6,297635e-003
1,400089e+003;5,566118e-003
1,402017e+003;5,169905e-003
1,403946e+003;4,785577e-003
1,405875e+003;4,587162e-003
1,407803e+003;4,521568e-003
1,409731e+003;4,389406e-003
1,411660e+003;4,358982e-003
1,413589e+003;4,699655e-003
1,415517e+003;4,768056e-003
1,417445e+003;5,243511e-003
1,419374e+003;7,466019e-003
1,421302e+003;9,658218e-003
1,423231e+003;1,076025e-002
1,425159e+003;1,175963e-002
1,427088e+003;1,248462e-002
1,429016e+003;1,329314e-002
1,430945e+003;1,336055e-002
1,432873e+003;1,285121e-002
1,434802e+003;1,296365e-002
1,436730e+003;1,367731e-002
1,438659e+003;1,447374e-002
1,440587e+003;1,478785e-002
1,442516e+003;1,398979e-002
1,444444e+003;1,247807e-002
1,446373e+003;1,144212e-002
1,448301e+003;1,061785e-002
1,450230e+003;1,028001e-002
1,452158e+003;1,051037e-002
1,454087e+003;1,023675e-002
1,456015e+003;9,114426e-003
1,457944e+003;8,968648e-003
1,459872e+003;9,218181e-003
1,461801e+003;9,300906e-003
1,463729e+003;9,026865e-003
1,465658e+003;8,575469e-003
1,467586e+003;8,581012e-003
1,469515e+003;8,544853e-003
1,471443e+003;8,250519e-003
1,473372e+003;7,868585e-003
1,475300e+003;7,591602e-003
1,477229e+003;6,963681e-003
1,479157e+003;6,468717e-003
1,481086e+003;6,090430e-003
1,483014e+003;5,951037e-003
1,484943e+003;5,462963e-003
1,486871e+003;4,920474e-003
1,488800e+003;4,246409e-003
1,490728e+003;4,805544e-003
1,492657e+003;5,324845e-003
1,494585e+003;4,801156e-003
1,496514e+003;3,930531e-003
1,498442e+003;3,574425e-003
1,500371e+003;3,068323e-003
1,502299e+003;2,356380e-003
1,504228e+003;1,592522e-003
1,506156e+003;1,954685e-004
1,508085e+003;-1,246986e-004
1,510013e+003;4,291070e-005
1,511942e+003;1,266236e-004
1,513870e+003;3,457588e-004
1,515799e+003;1,718671e-004
1,517727e+003;-2,892963e-004
1,519656e+003;-4,510513e-004
1,521584e+003;2,680626e-005
1,523513e+003;5,993111e-004
1,525441e+003;5,246298e-004
1,527370e+003;5,280799e-004
1,529298e+003;6,541276e-004
1,531227e+003;8,302043e-004
1,533155e+003;8,041783e-004
1,535084e+003;7,208657e-004
1,537012e+003;6,870805e-004
1,538941e+003;2,605780e-004
1,540869e+003;-8,329099e-005
1,542798e+003;8,465045e-004
1,544726e+003;7,850249e-004
1,546655e+003;6,945807e-004
1,548583e+003;7,688266e-004
1,550512e+003;9,716152e-004
1,552440e+003;1,047735e-003
1,554369e+003;1,267136e-003
1,556297e+003;1,079223e-003
1,558226e+003;4,206746e-004
1,560154e+003;8,628961e-005
1,562083e+003;3,614771e-004
1,564011e+003;3,854205e-004
1,565940e+003;4,204425e-004
1,567868e+003;6,477231e-004
1,569797e+003;7,168498e-004
1,571725e+003;9,809800e-004
1,573654e+003;1,092410e-003
1,575582e+003;6,643484e-004
1,577511e+003;8,964714e-004
1,579439e+003;9,691246e-004
1,581368e+003;1,037970e-003
1,583296e+003;1,269994e-003
1,585225e+003;1,320741e-003
1,587153e+003;1,327554e-003
1,589082e+003;1,462445e-003
1,591010e+003;1,461747e-003
1,592939e+003;1,546565e-003
1,594867e+003;1,731553e-003
1,596796e+003;2,031420e-003
1,598724e+003;2,168195e-003
1,600653e+003;2,072601e-003
1,602581e+003;2,032119e-003
1,604510e+003;2,191971e-003
1,606438e+003;2,011580e-003
1,608367e+003;2,287924e-003
1,610295e+003;2,977169e-003
1,612224e+003;3,322235e-003
1,614152e+003;3,379700e-003
1,616081e+003;3,203489e-003
1,618009e+003;3,368314e-003
1,619938e+003;3,707308e-003
1,621866e+003;3,531865e-003
1,623795e+003;3,532333e-003
1,625723e+003;4,174109e-003
1,627652e+003;4,554715e-003
1,629580e+003;4,849402e-003
1,631509e+003;5,110995e-003
1,633437e+003;5,008115e-003
1,635366e+003;4,538677e-003
1,637294e+003;5,082834e-003
1,639223e+003;5,554104e-003
1,641151e+003;5,510007e-003
1,643080e+003;5,702198e-003
1,645008e+003;5,685916e-003
1,646937e+003;5,949895e-003
1,648865e+003;6,130283e-003
1,650794e+003;6,047455e-003
1,652722e+003;4,913604e-003
1,654651e+003;6,195347e-003
1,656579e+003;6,854000e-003
1,658508e+003;7,216412e-003
1,660436e+003;7,197277e-003
1,662365e+003;7,309774e-003
1,664293e+003;7,884949e-003
1,666222e+003;8,576078e-003
1,668150e+003;8,996655e-003
1,670079e+003;9,522858e-003
1,672007e+003;1,017233e-002
1,673936e+003;1,119920e-002
1,675864e+003;1,249464e-002
1,677793e+003;1,362018e-002
1,679721e+003;1,448138e-002
1,681650e+003;1,513643e-002
1,683578e+003;1,588137e-002
1,685507e+003;1,883623e-002
1,687435e+003;1,957428e-002
1,689364e+003;2,133623e-002
1,691292e+003;2,372513e-002
1,693221e+003;2,605574e-002
1,695149e+003;2,848390e-002
1,697078e+003;3,295274e-002
1,699006e+003;3,399591e-002
1,700935e+003;3,996147e-002
1,702863e+003;4,317663e-002
1,704792e+003;4,523579e-002
1,706720e+003;4,609058e-002
1,708649e+003;4,589200e-002
1,710577e+003;4,157439e-002
1,712505e+003;3,661393e-002
1,714434e+003;3,087665e-002
1,716363e+003;2,611471e-002
1,718291e+003;1,977020e-002
1,720219e+003;1,423781e-002
1,722148e+003;1,045056e-002
1,724077e+003;6,913382e-003
1,726005e+003;6,538878e-003
1,727933e+003;5,141740e-003
1,729862e+003;4,157349e-003
1,731791e+003;3,368347e-003
1,733719e+003;2,582909e-003
1,735647e+003;3,247986e-003
1,737576e+003;3,452236e-003
1,739505e+003;3,515397e-003
1,741433e+003;4,625940e-003
1,743361e+003;4,594796e-003
1,745290e+003;4,279100e-003
1,747219e+003;4,207698e-003
1,749147e+003;3,601286e-003
1,751075e+003;2,892805e-003
1,753004e+003;2,918789e-003
1,754932e+003;2,360277e-003
1,756861e+003;1,324696e-003
1,758789e+003;1,395460e-003
1,760718e+003;1,696159e-003
1,762646e+003;1,948704e-003
1,764575e+003;2,348584e-003
1,766503e+003;2,864020e-003
1,768432e+003;3,643952e-003
1,770360e+003;4,486515e-003
1,772289e+003;6,332700e-003
1,774217e+003;8,013656e-003
1,776146e+003;9,466505e-003
1,778074e+003;1,055066e-002
1,780003e+003;1,016833e-002
1,781931e+003;8,548063e-003
1,783860e+003;6,649758e-003
1,785788e+003;5,049211e-003
1,787717e+003;4,055330e-003
1,789645e+003;3,598646e-003
1,791574e+003;3,840165e-003
1,793502e+003;4,681569e-003
1,795431e+003;5,664968e-003
1,797359e+003;7,102625e-003
1,799288e+003;7,680290e-003
1,801216e+003;8,347753e-003
1,803145e+003;8,554484e-003
1,805073e+003;7,423987e-003
1,807002e+003;5,808298e-003
1,808930e+003;4,542393e-003
1,810859e+003;3,111204e-003
1,812787e+003;1,792568e-003
1,814716e+003;8,145354e-004
1,816644e+003;-2,878063e-004
1,818573e+003;-5,181391e-004
1,820501e+003;-4,855398e-004
1,822430e+003;-5,080451e-004
1,824358e+003;-5,761500e-004
1,826287e+003;-6,848043e-004
1,828215e+003;-1,275343e-003
1,830144e+003;-1,191488e-003
1,832072e+003;-8,320597e-004
1,834001e+003;-9,582718e-004
1,835929e+003;-1,041379e-003
1,837858e+003;-7,917447e-004
1,839786e+003;-6,448065e-004
1,841715e+003;-8,654266e-004
1,843643e+003;-1,107186e-003
1,845572e+003;-1,337911e-003
1,847500e+003;-1,717911e-003
1,849429e+003;-1,707086e-003
1,851357e+003;-1,318785e-003
1,853286e+003;-9,343019e-004
1,855214e+003;-8,962780e-004
1,857143e+003;-7,911163e-004
1,859071e+003;-7,136176e-004
1,861000e+003;-4,864334e-004
1,862928e+003;-3,617724e-004
1,864857e+003;-4,764711e-004
1,866785e+003;-7,868828e-004
1,868714e+003;-9,834967e-004
1,870642e+003;-6,488759e-004
1,872571e+003;-1,258249e-004
1,874499e+003;1,343462e-004
1,876428e+003;1,444668e-005
1,878356e+003;-4,623712e-004
1,880285e+003;-6,676675e-004
1,882213e+003;-3,775639e-004
1,884142e+003;-5,219450e-004
1,886070e+003;-6,957873e-004
1,887999e+003;-6,074851e-004
1,889927e+003;-3,732602e-004
1,891856e+003;-4,698846e-004
1,893784e+003;-4,159974e-004
1,895713e+003;5,285201e-005
1,897641e+003;-5,890833e-005
1,899570e+003;-5,528208e-004
1,901498e+003;-5,849849e-004
1,903427e+003;-5,259493e-004
1,905355e+003;-3,928582e-004
1,907284e+003;-7,345896e-004
1,909212e+003;-1,559401e-003
1,911141e+003;-1,607072e-003
1,913069e+003;-6,304474e-004
1,914998e+003;-3,953741e-004
1,916926e+003;-7,680964e-004
1,918855e+003;-8,022950e-004
1,920783e+003;-1,347193e-003
1,922712e+003;-1,670945e-003
1,924640e+003;-1,128205e-003
1,926569e+003;-8,516039e-004
1,928497e+003;-8,437996e-004
1,930426e+003;-1,192182e-003
1,932354e+003;-1,507299e-003
1,934283e+003;-1,413614e-003
1,936211e+003;-1,240918e-003
1,938140e+003;-1,215873e-003
1,940068e+003;-1,371701e-003
1,941997e+003;-1,817800e-003
1,943925e+003;-2,207568e-003
1,945854e+003;-2,251411e-003
1,947782e+003;-1,975623e-003
1,949711e+003;-1,906286e-003
1,951639e+003;-1,383889e-003
1,953568e+003;-1,520375e-003
1,955496e+003;-1,923868e-003
1,957425e+003;-1,289912e-003
1,959353e+003;-1,203780e-003
1,961282e+003;-7,814256e-004
1,963210e+003;-9,592968e-004
1,965139e+003;-9,112235e-004
1,967067e+003;-4,774971e-004
1,968996e+003;1,951039e-004
1,970924e+003;-5,079128e-004
1,972853e+003;-1,915523e-003
1,974781e+003;-1,203681e-003
1,976710e+003;5,851866e-005
1,978638e+003;1,434486e-003
1,980567e+003;1,943945e-003
1,982495e+003;1,092942e-003
1,984424e+003;6,169996e-005
1,986352e+003;-7,956143e-004
1,988281e+003;-9,245814e-004
1,990209e+003;-4,373478e-004
1,992138e+003;5,367053e-004
1,994066e+003;3,764001e-004
1,995995e+003;-5,619872e-004
1,997923e+003;-6,708105e-004
1,999852e+003;-8,420469e-004
2,001780e+003;-1,461962e-003
2,003709e+003;-2,726341e-003
2,005637e+003;-3,076770e-003
2,007566e+003;-2,056260e-003
2,009494e+003;-1,043396e-003
2,011423e+003;-1,071921e-003
2,013351e+003;-1,138780e-003
2,015280e+003;-4,154677e-004
2,017208e+003;-6,316385e-004
2,019137e+003;-1,093999e-003
2,021065e+003;-1,477449e-003
2,022994e+003;-1,730452e-003
2,024922e+003;-7,902564e-004
2,026851e+003;-5,618879e-004
2,028779e+003;-1,508191e-003
2,030708e+003;-1,184846e-003
2,032636e+003;-8,696815e-005
2,034565e+003;-7,930346e-004
2,036493e+003;-7,924723e-004
2,038422e+003;7,619889e-004
2,040350e+003;1,248760e-003
2,042279e+003;9,019831e-004
2,044207e+003;2,249860e-005
2,046135e+003;1,054453e-004
2,048064e+003;8,605146e-004
2,049992e+003;1,912127e-003
2,051921e+003;4,666785e-004
2,053850e+003;-5,986837e-004
2,055778e+003;3,870228e-005
2,057707e+003;1,071285e-003
2,059635e+003;1,118221e-003
2,061563e+003;1,109138e-004
2,063492e+003;-3,470067e-004
2,065420e+003;-4,762394e-004
2,067349e+003;-4,031204e-004
2,069278e+003;-2,290283e-004
2,071206e+003;-2,443611e-004
2,073135e+003;-2,791308e-004
2,075063e+003;-2,608522e-004
2,076991e+003;1,088590e-004
2,078920e+003;3,552096e-004
2,080848e+003;6,642156e-004
2,082777e+003;1,171376e-003
2,084706e+003;1,202175e-003
2,086634e+003;6,498469e-004
2,088563e+003;-6,426229e-004
2,090491e+003;-1,611463e-003
2,092419e+003;-1,190430e-003
2,094348e+003;-8,317951e-004
2,096276e+003;-4,531366e-004
2,098205e+003;1,118749e-004
2,100134e+003;-1,457895e-006
2,102062e+003;-2,044883e-004
2,103990e+003;2,950263e-004
2,105919e+003;3,275209e-004
2,107847e+003;-5,274055e-004
2,109776e+003;-8,031550e-004
2,111704e+003;-9,520894e-004
2,113633e+003;-9,485518e-004
2,115562e+003;-4,701825e-004
2,117490e+003;-4,411213e-004
2,119418e+003;-5,058278e-004
2,121347e+003;-1,364005e-003
2,123275e+003;-1,707911e-003
2,125204e+003;-1,665565e-003
2,127132e+003;-1,670780e-003
2,129061e+003;-2,309817e-003
2,130990e+003;-3,485822e-003
2,132918e+003;-3,674516e-003
2,134846e+003;-1,955733e-003
2,136775e+003;-2,391216e-003
2,138703e+003;-3,062426e-003
2,140632e+003;-2,353023e-003
2,142560e+003;-2,604627e-003
2,144489e+003;-1,829844e-003
2,146417e+003;-7,484821e-004
2,148346e+003;-2,024073e-003
2,150274e+003;-3,615833e-003
2,152203e+003;-3,545114e-003
2,154131e+003;-4,066692e-003
2,156060e+003;-5,198769e-003
2,157988e+003;-4,363035e-003
2,159917e+003;-1,161847e-003
2,161845e+003;-1,695138e-004
2,163774e+003;5,265539e-004
2,165702e+003;1,532499e-003
2,167631e+003;1,720675e-003
2,169559e+003;1,054943e-003
2,171488e+003;3,958671e-004
2,173416e+003;-1,019992e-003
2,175345e+003;-2,011013e-003
2,177273e+003;-2,561314e-003
2,179202e+003;-1,634504e-003
2,181130e+003;-9,097686e-004
2,183059e+003;-4,026569e-004
2,184987e+003;-3,221091e-004
2,186916e+003;-2,536995e-004
2,188844e+003;-3,253538e-004
2,190773e+003;-3,516086e-004
2,192701e+003;-9,286479e-005
2,194630e+003;4,071762e-004
2,196558e+003;-4,674961e-005
2,198487e+003;-6,542687e-004
2,200415e+003;9,556908e-005
2,202344e+003;8,432179e-004
2,204272e+003;2,674077e-004
2,206201e+003;-6,708435e-004
2,208129e+003;-5,850511e-004
2,210058e+003;-3,566078e-004
2,211986e+003;-5,020549e-004
2,213915e+003;-4,754120e-004
2,215843e+003;-2,717135e-004
2,217772e+003;-3,446560e-004
2,219700e+003;-3,285322e-004
2,221629e+003;-7,139815e-004
2,223557e+003;-4,655818e-004
2,225486e+003;1,353736e-004
2,227414e+003;2,209608e-004
2,229343e+003;5,352125e-004
2,231271e+003;3,930813e-004
2,233200e+003;-4,105113e-005
2,235128e+003;-7,041567e-004
2,237057e+003;-9,202500e-004
2,238985e+003;-6,845727e-004
2,240914e+003;-5,097661e-004
2,242842e+003;6,660452e-005
2,244771e+003;-1,731902e-004
2,246699e+003;-3,777625e-004
2,248628e+003;-1,465934e-004
2,250556e+003;4,611392e-004
2,252485e+003;8,134731e-004
2,254413e+003;5,152649e-005
2,256342e+003;1,887062e-004
2,258270e+003;4,148706e-004
2,260199e+003;6,047526e-004
2,262127e+003;5,586014e-004
2,264056e+003;2,150600e-004
2,265984e+003;3,909919e-004
2,267913e+003;7,278355e-004
2,269841e+003;8,976939e-005
2,271770e+003;1,782648e-005
2,273698e+003;7,578731e-004
2,275627e+003;1,039864e-003
2,277555e+003;4,782217e-004
2,279484e+003;2,833553e-004
2,281412e+003;8,460730e-004
2,283341e+003;1,328086e-003
2,285269e+003;1,280462e-003
2,287198e+003;1,349523e-003
2,289126e+003;1,448415e-003
2,291055e+003;1,100250e-003
2,292983e+003;8,037135e-004
2,294912e+003;7,089510e-004
2,296840e+003;5,842809e-004
2,298769e+003;-3,840065e-005
2,300697e+003;1,222663e-005
2,302626e+003;5,254259e-004
2,304554e+003;7,755315e-004
2,306483e+003;6,707199e-004
2,308411e+003;2,168502e-004
2,310340e+003;2,450954e-004
2,312268e+003;5,027023e-004
2,314197e+003;4,975938e-004
2,316125e+003;7,468867e-004
2,318054e+003;1,013592e-003
2,319982e+003;1,012762e-003
2,321911e+003;1,291163e-003
2,323839e+003;1,692367e-003
2,325768e+003;5,286771e-004
2,327696e+003;-4,204000e-004
2,329625e+003;-4,225185e-004
2,331553e+003;-7,874120e-004
2,333482e+003;-6,828525e-004
2,335410e+003;-5,229378e-004
2,337339e+003;-6,271719e-004
2,339267e+003;-1,420714e-003
2,341196e+003;-1,508488e-003
2,343124e+003;-8,317951e-004
2,345053e+003;-1,094825e-003
2,346981e+003;-1,306100e-003
2,348910e+003;-1,087025e-003
2,350838e+003;-1,031066e-003
2,352767e+003;-1,309040e-003
2,354695e+003;-1,078630e-003
2,356624e+003;-6,794780e-004
2,358552e+003;-1,951907e-003
2,360481e+003;-2,048544e-003
2,362409e+003;-1,390528e-003
2,364338e+003;-2,277154e-003
2,366266e+003;-2,666444e-003
2,368195e+003;-1,862210e-003
2,370123e+003;-1,392906e-003
2,372052e+003;-1,000489e-003
2,373980e+003;-1,754015e-003
2,375909e+003;-1,531469e-003
2,377837e+003;-8,008399e-004
2,379766e+003;-8,855977e-004
2,381694e+003;-1,086199e-003
2,383623e+003;-1,090496e-003
2,385551e+003;-8,801747e-004
2,387479e+003;-8,084797e-004
2,389408e+003;-6,273373e-004
2,391337e+003;-4,413530e-004
2,393265e+003;-6,590658e-004
2,395194e+003;-4,621726e-004
2,397122e+003;-6,409356e-004
2,399051e+003;-1,137227e-003
2,400979e+003;-6,020918e-004
2,402907e+003;-4,713740e-004
2,404836e+003;-9,474938e-004
2,406765e+003;-1,189472e-003
2,408693e+003;-1,164358e-003
2,410622e+003;-8,475034e-004
2,412550e+003;-6,423251e-004
2,414479e+003;-8,342754e-004
2,416407e+003;-1,195684e-003
2,418335e+003;-7,018080e-004
2,420264e+003;-4,063314e-004
2,422193e+003;-3,418087e-004
2,424121e+003;-1,089311e-004
2,426050e+003;1,789938e-004
2,427978e+003;4,125384e-005
2,429906e+003;-2,294920e-004
2,431835e+003;-1,340728e-004
2,433763e+003;-6,669397e-004
2,435692e+003;-1,046866e-003
2,437621e+003;-7,771259e-004
2,439549e+003;-5,428931e-004
2,441478e+003;-5,156901e-004
2,443406e+003;-2,779719e-004
2,445334e+003;-3,573361e-004
2,447263e+003;-6,063271e-004
2,449191e+003;-7,202665e-004
2,451120e+003;-2,955456e-005
2,453049e+003;5,426769e-004
2,454977e+003;1,154543e-004
2,456906e+003;-1,187362e-004
2,458834e+003;-2,042896e-004
2,460762e+003;-6,662119e-004
2,462691e+003;-5,779699e-004
2,464619e+003;-2,634351e-004
2,466548e+003;-6,723653e-004
2,468477e+003;-7,936630e-004
2,470405e+003;-2,885679e-004
2,472333e+003;-2,733472e-005
2,474262e+003;-3,273403e-004
2,476190e+003;-7,612166e-004
2,478119e+003;-5,789295e-004
2,480047e+003;-9,750004e-004
2,481976e+003;-9,086445e-004
2,483905e+003;-9,862075e-004
2,485833e+003;-1,539261e-003
2,487761e+003;-1,093338e-003
2,489690e+003;-4,107672e-004
2,491618e+003;-5,430586e-004
2,493547e+003;-6,583380e-004
2,495475e+003;-4,321179e-004
2,497404e+003;-3,438283e-004
2,499333e+003;-4,408234e-004
2,501261e+003;-8,201210e-004
2,503189e+003;-6,760706e-004
2,505118e+003;-3,808744e-004
2,507046e+003;-7,277093e-004
2,508975e+003;-5,245594e-004
2,510903e+003;-1,130386e-004
2,512832e+003;-3,326708e-004
2,514760e+003;-8,291494e-004
2,516689e+003;-8,871518e-004
2,518617e+003;-7,000217e-004
2,520546e+003;-6,613486e-004
2,522474e+003;-1,279836e-003
2,524403e+003;-1,384384e-003
2,526331e+003;-7,745791e-004
2,528260e+003;-9,018149e-005
2,530188e+003;-8,438420e-005
2,532117e+003;-7,369712e-004
2,534045e+003;-7,572805e-004
2,535974e+003;-5,857791e-004
2,537902e+003;-5,733704e-004
2,539831e+003;-7,788457e-004
2,541759e+003;-9,667024e-004
2,543688e+003;-1,192083e-003
2,545616e+003;-1,034570e-003
2,547545e+003;-5,027830e-004
2,549473e+003;-3,978900e-004
2,551402e+003;-4,808069e-004
2,553330e+003;-7,670379e-004
2,555259e+003;-8,861929e-004
2,557187e+003;-4,174539e-004
2,559116e+003;5,248749e-005
2,561044e+003;-1,766008e-005
2,562973e+003;2,816402e-006
2,564901e+003;-1,911792e-005
2,566830e+003;-2,714486e-004
2,568758e+003;-4,006707e-004
2,570687e+003;-2,423410e-004
2,572615e+003;1,583836e-005
2,574544e+003;-4,529187e-005
2,576472e+003;-5,119835e-004
2,578401e+003;-4,577705e-004
2,580329e+003;-1,066454e-004
2,582258e+003;-1,102230e-004
2,584186e+003;-4,493963e-004
2,586115e+003;-5,581155e-004
2,588043e+003;-7,804334e-004
2,589972e+003;-1,165019e-003
2,591900e+003;-9,393275e-004
2,593829e+003;-4,823624e-004
2,595757e+003;-2,478050e-004
2,597686e+003;-2,448578e-004
2,599614e+003;-1,257917e-004
2,601543e+003;-1,113824e-004
2,603471e+003;-2,894288e-004
2,605400e+003;-4,149712e-004
2,607328e+003;6,577605e-005
2,609257e+003;4,766959e-004
2,611185e+003;6,662731e-004
2,613114e+003;7,421736e-004
2,615042e+003;4,335765e-004
2,616971e+003;-2,531367e-005
2,618899e+003;-1,673237e-005
2,620828e+003;7,697719e-005
2,622756e+003;1,983194e-004
2,624685e+003;-1,381667e-005
2,626613e+003;-4,488998e-004
2,628542e+003;-9,137407e-005
2,630470e+003;2,238118e-004
2,632399e+003;-1,221149e-004
2,634327e+003;-4,969821e-005
2,636256e+003;5,596700e-005
2,638184e+003;2,150932e-004
2,640113e+003;5,727680e-004
2,642041e+003;6,555545e-004
2,643970e+003;6,082697e-004
2,645898e+003;3,619413e-004
2,647827e+003;2,391279e-004
2,649755e+003;3,207494e-005
2,651684e+003;2,528863e-004
2,653612e+003;2,449296e-004
2,655541e+003;-1,577225e-004
2,657469e+003;-2,189939e-004
2,659398e+003;1,314295e-004
2,661326e+003;1,457148e-004
2,663255e+003;-2,126685e-004
2,665183e+003;-6,155585e-004
2,667112e+003;-6,811983e-004
2,669040e+003;-7,280732e-004
2,670969e+003;-8,458168e-004
2,672897e+003;-7,464314e-004
2,674826e+003;-5,163851e-004
2,676754e+003;-5,403119e-004
2,678683e+003;-8,821257e-004
2,680611e+003;-8,687996e-004
2,682540e+003;-7,337626e-004
2,684468e+003;-9,276562e-004
2,686397e+003;-8,551423e-004
2,688325e+003;-6,167827e-004
2,690254e+003;-5,119173e-004
2,692182e+003;-6,673036e-004
2,694111e+003;-9,962904e-004
2,696039e+003;-8,864574e-004
2,697968e+003;-4,964286e-004
2,699896e+003;-2,861176e-004
2,701825e+003;-4,279802e-004
2,703753e+003;-6,073859e-004
2,705682e+003;-5,244601e-004
2,707610e+003;-5,441837e-004
2,709539e+003;-6,038124e-004
2,711467e+003;-2,113437e-004
2,713396e+003;-3,804771e-004
2,715324e+003;-7,047191e-004
2,717253e+003;-7,550975e-004
2,719181e+003;-5,696312e-004
2,721110e+003;-5,328659e-004
2,723038e+003;-6,968128e-004
2,724967e+003;-6,222089e-004
2,726895e+003;-2,446591e-004
2,728823e+003;-3,462121e-004
2,730752e+003;-4,317207e-004
2,732681e+003;-3,922955e-004
2,734609e+003;-2,816474e-004
2,736538e+003;-2,909519e-004
2,738466e+003;-5,605973e-004
2,740395e+003;-9,647187e-004
2,742323e+003;-1,067260e-003
2,744251e+003;-7,875774e-004
2,746180e+003;-6,465269e-004
2,748109e+003;-6,678991e-004
2,750037e+003;-8,774632e-004
2,751966e+003;-6,788826e-004
2,753894e+003;-5,624504e-004
2,755823e+003;-5,614577e-004
2,757751e+003;-5,350501e-004
2,759679e+003;-7,289994e-004
2,761608e+003;-9,039161e-004
2,763537e+003;-7,102104e-004
2,765465e+003;-6,181723e-004
2,767394e+003;-7,580413e-004
2,769322e+003;-5,514971e-004
2,771250e+003;-3,715056e-004
2,773179e+003;-1,336090e-004
2,775107e+003;-3,942155e-004
2,777036e+003;-5,344213e-004
2,778965e+003;-5,312113e-004
2,780893e+003;-5,943491e-004
2,782822e+003;-6,607200e-004
2,784750e+003;-7,419660e-004
2,786678e+003;-7,380628e-004
2,788607e+003;-4,920267e-004
2,790535e+003;-3,814372e-004
2,792464e+003;-3,150567e-004
2,794393e+003;-5,289940e-004
2,796321e+003;-6,374285e-004
2,798250e+003;-6,298188e-004
2,800178e+003;-4,385395e-004
2,802106e+003;-2,327043e-004
2,804035e+003;-2,142250e-004
2,805963e+003;-5,472944e-004
2,807892e+003;-7,366735e-004
2,809821e+003;-4,508527e-004
2,811749e+003;-3,777625e-004
2,813677e+003;-3,785901e-004
2,815606e+003;-1,471565e-004
2,817534e+003;-1,218499e-004
2,819463e+003;-9,710501e-005
2,821391e+003;-3,089644e-004
2,823320e+003;-1,709711e-004
2,825249e+003;-1,246324e-004
2,827177e+003;-6,175746e-005
2,829105e+003;1,165149e-004
2,831034e+003;-1,244005e-004
2,832962e+003;-2,397911e-004
2,834891e+003;-1,683177e-005
2,836819e+003;3,515287e-004
2,838748e+003;4,433277e-004
2,840677e+003;3,984539e-004
2,842605e+003;3,776934e-004
2,844533e+003;5,772139e-004
2,846462e+003;8,462057e-004
2,848390e+003;8,175230e-004
2,850319e+003;4,725828e-004
2,852247e+003;2,753980e-004
2,854176e+003;4,217028e-004
2,856104e+003;5,102325e-004
2,858033e+003;4,838608e-004
2,859961e+003;5,301699e-004
2,861890e+003;6,445707e-004
2,863818e+003;6,988287e-004
2,865747e+003;5,280467e-004
2,867675e+003;7,391201e-004
2,869604e+003;9,187509e-004
2,871532e+003;8,943464e-004
2,873461e+003;9,365487e-004
2,875389e+003;1,076832e-003
2,877318e+003;1,109817e-003
2,879246e+003;1,544836e-003
2,881175e+003;1,642242e-003
2,883103e+003;1,149847e-003
2,885032e+003;1,324696e-003
2,886960e+003;1,696425e-003
2,888889e+003;1,385587e-003
2,890817e+003;1,373987e-003
2,892746e+003;2,067641e-003
2,894674e+003;2,115018e-003
2,896603e+003;2,138592e-003
2,898531e+003;2,119879e-003
2,900460e+003;1,873824e-003
2,902388e+003;1,510521e-003
2,904317e+003;1,101379e-003
2,906245e+003;1,471089e-003
2,908174e+003;2,273135e-003
2,910102e+003;2,433542e-003
2,912031e+003;2,219446e-003
2,913959e+003;2,029090e-003
2,915888e+003;2,563544e-003
2,917816e+003;3,048870e-003
2,919745e+003;2,764639e-003
2,921673e+003;2,672614e-003
2,923602e+003;2,807156e-003
2,925530e+003;3,065220e-003
2,927459e+003;3,349882e-003
2,929387e+003;3,107300e-003
2,931316e+003;3,313487e-003
2,933244e+003;3,491347e-003
2,935173e+003;3,686924e-003
2,937101e+003;3,893855e-003
2,939030e+003;3,941332e-003
2,940958e+003;3,986272e-003
2,942887e+003;3,928057e-003
2,944815e+003;3,254729e-003
2,946744e+003;2,336825e-003
2,948672e+003;1,627907e-003
2,950601e+003;1,952831e-003
2,952529e+003;2,926995e-003
2,954458e+003;3,485135e-003
2,956386e+003;3,928525e-003
2,958315e+003;4,215929e-003
2,960243e+003;4,179963e-003
2,962172e+003;4,306072e-003
2,964100e+003;4,479485e-003
2,966029e+003;3,852868e-003
2,967957e+003;3,575427e-003
2,969886e+003;3,138537e-003
2,971814e+003;2,369406e-003
2,973743e+003;2,033850e-003
2,975671e+003;2,095607e-003
2,977600e+003;2,033284e-003
2,979528e+003;2,029856e-003
2,981457e+003;2,093043e-003
2,983385e+003;1,946707e-003
2,985314e+003;1,585172e-003
2,987242e+003;1,194300e-003
2,989171e+003;1,602366e-003
2,991099e+003;1,944943e-003
2,993028e+003;1,981722e-003
2,994956e+003;1,875155e-003
2,996885e+003;1,758766e-003
2,998813e+003;2,034250e-003
3,000742e+003;2,159603e-003
3,002670e+003;2,098870e-003
3,004599e+003;2,447737e-003
3,006527e+003;2,579143e-003
3,008456e+003;2,084221e-003
3,010384e+003;1,982488e-003
3,012313e+003;2,287624e-003
3,014241e+003;2,456367e-003
3,016170e+003;2,380400e-003
3,018098e+003;2,049464e-003
3,020027e+003;1,959022e-003
3,021955e+003;1,830732e-003
3,023884e+003;1,504303e-003
3,025812e+003;1,827937e-003
3,027741e+003;1,874988e-003
3,029669e+003;1,419360e-003
3,031598e+003;7,939874e-004
3,033526e+003;5,277481e-004
3,035455e+003;6,055489e-004
3,037383e+003;6,695584e-004
3,039312e+003;7,844938e-004
3,041240e+003;5,807308e-004
3,043169e+003;6,069425e-004
3,045097e+003;5,232365e-004
3,047026e+003;6,147731e-004
3,048954e+003;1,072912e-003
3,050883e+003;1,078094e-003
3,052811e+003;4,945088e-004
3,054740e+003;-3,747298e-005
3,056668e+003;-2,741970e-004
3,058597e+003;-4,737571e-004
3,060525e+003;-2,763291e-005
3,062454e+003;1,147252e-004
3,064382e+003;-6,070219e-004
3,066311e+003;-8,038495e-004
3,068239e+003;-6,130108e-004
3,070167e+003;-4,415847e-004
3,072096e+003;-4,091782e-004
3,074025e+003;-4,824617e-004
3,075953e+003;-8,235273e-004
3,077882e+003;-9,766204e-004
3,079810e+003;-7,264192e-004
3,081739e+003;-6,740526e-004
3,083667e+003;-6,652194e-004
3,085595e+003;-4,030211e-004
3,087524e+003;-2,082306e-004
3,089453e+003;-4,394663e-004
3,091381e+003;-5,736020e-004
3,093310e+003;-3,783253e-004
3,095238e+003;-2,020706e-004
3,097167e+003;-5,693333e-004
3,099095e+003;-9,903068e-004
3,101023e+003;-5,390213e-004
3,102952e+003;1,778337e-004
3,104881e+003;2,892698e-005
3,106809e+003;-4,104692e-004
3,108738e+003;-6,107278e-004
3,110666e+003;-6,259477e-004
3,112594e+003;-1,189439e-003
3,114523e+003;-1,482237e-003
3,116451e+003;-1,267646e-003
3,118380e+003;-1,072780e-003
3,120309e+003;-3,806758e-004
3,122237e+003;-2,624086e-004
3,124166e+003;-7,624404e-004
3,126094e+003;-9,729838e-004
3,128022e+003;-5,559314e-004
3,129951e+003;-6,363367e-004
3,131879e+003;-9,011386e-004
3,133808e+003;-1,068021e-003
3,135737e+003;-9,761906e-004
3,137665e+003;-3,941162e-004
3,139594e+003;3,538860e-005
3,141522e+003;-1,418237e-004
3,143450e+003;-3,482978e-004
3,145379e+003;-2,455863e-004
3,147307e+003;-8,335478e-004
3,149236e+003;-9,605531e-004
3,151165e+003;-6,986653e-004
3,153093e+003;-9,309626e-004
3,155021e+003;-9,306981e-004
3,156950e+003;-5,739329e-004
3,158878e+003;-1,470240e-004
3,160807e+003;-2,169738e-004
3,162735e+003;-5,974926e-004
3,164664e+003;-6,575109e-004
3,166593e+003;-6,372962e-004
3,168521e+003;-7,366074e-004
3,170449e+003;-2,841308e-004
3,172378e+003;-7,423298e-004
3,174306e+003;-1,366086e-003
3,176235e+003;-6,496038e-004
3,178163e+003;-2,791308e-004
3,180092e+003;-3,949438e-004
3,182021e+003;-5,903123e-004
3,183949e+003;-1,355087e-003
3,185877e+003;-1,214882e-003
3,187806e+003;-8,358296e-004
3,189734e+003;-1,138681e-003
3,191663e+003;-1,650051e-003
3,193591e+003;-1,720188e-003
3,195520e+003;-1,673057e-003
3,197448e+003;-1,562306e-003
3,199377e+003;-8,671792e-004
3,201305e+003;-2,951902e-004
3,203234e+003;-4,466159e-004
3,205162e+003;-7,788457e-004
3,207091e+003;-9,514612e-004
3,209019e+003;-9,746368e-004
3,210948e+003;-7,978964e-004
3,212876e+003;-7,298925e-004
3,214805e+003;-7,736530e-004
3,216733e+003;-7,013449e-004
3,218662e+003;-1,629889e-004
3,220590e+003;-1,182393e-004
3,222519e+003;-7,055792e-004
3,224447e+003;-8,867219e-004
3,226376e+003;-9,046436e-004
3,228304e+003;-9,553294e-004
3,230233e+003;-7,206305e-004
3,232161e+003;-5,380947e-004
3,234090e+003;-6,441779e-004
3,236018e+003;-6,581064e-004
3,237947e+003;-1,997854e-004
3,239875e+003;-5,274055e-004
3,241804e+003;-8,499505e-004
3,243732e+003;-3,650499e-004
3,245661e+003;-3,739554e-004
3,247589e+003;-5,622482e-005
3,249518e+003;6,428480e-005
3,251446e+003;-5,608621e-004
3,253375e+003;-6,516220e-004
3,255303e+003;-1,051659e-003
3,257232e+003;-9,491800e-004
3,259160e+003;-1,023397e-003
3,261089e+003;-1,323244e-003
3,263017e+003;-1,439869e-003
3,264946e+003;-7,175210e-004
3,266874e+003;-4,028555e-004
3,268803e+003;-7,250299e-004
3,270731e+003;-8,945256e-004
3,272660e+003;-8,022950e-004
3,274588e+003;-8,218407e-004
3,276517e+003;-8,424437e-004
3,278445e+003;-8,243211e-004
3,280374e+003;-5,205219e-004
3,282302e+003;-9,045113e-004
3,284231e+003;-1,063393e-003
3,286159e+003;-7,108058e-004
3,288088e+003;-5,748594e-004
3,290016e+003;-9,248459e-004
3,291945e+003;-5,486512e-004
3,293873e+003;-1,896510e-004
3,295802e+003;-5,235997e-004
3,297730e+003;-1,216501e-003
3,299659e+003;-1,125660e-003
3,301587e+003;-1,110524e-003
3,303516e+003;-1,253142e-003
3,305444e+003;-6,213818e-004
3,307373e+003;-3,048918e-004
3,309301e+003;-5,082106e-004
3,311230e+003;-7,844684e-004
3,313158e+003;-1,142449e-003
3,315087e+003;-1,350793e-003
3,317015e+003;-6,546326e-004
3,318944e+003;-4,804759e-004
3,320872e+003;-6,283630e-004
3,322801e+003;-3,403189e-004
3,324729e+003;-4,406248e-004
3,326658e+003;-4,688585e-004
3,328586e+003;-9,803891e-004
3,330515e+003;-1,466816e-003
3,332443e+003;-1,188051e-003
3,334372e+003;-4,933506e-004
3,336300e+003;9,046535e-005
3,338229e+003;3,777297e-006
3,340157e+003;-4,002408e-005
3,342086e+003;-4,067948e-004
3,344014e+003;-7,357142e-004
3,345943e+003;-9,117856e-004
3,347871e+003;-1,213957e-003
3,349800e+003;-1,360603e-003
3,351728e+003;-9,893150e-004
3,353657e+003;-6,311092e-004
3,355585e+003;-9,432288e-004
3,357514e+003;-9,501057e-004
3,359442e+003;-7,984255e-004
3,361371e+003;-7,155031e-004
3,363299e+003;-8,150610e-004
3,365228e+003;-2,395262e-004
3,367156e+003;-3,410804e-004
3,369085e+003;-9,306319e-004
3,371013e+003;-3,988169e-004
3,372942e+003;3,376014e-004
3,374870e+003;4,121842e-004
3,376799e+003;-5,082437e-004
3,378727e+003;-1,192909e-003
3,380656e+003;-1,063393e-003
3,382584e+003;-7,107728e-004
3,384513e+003;-8,286533e-004
3,386441e+003;-5,707231e-004
3,388370e+003;-2,530041e-004
3,390298e+003;-2,750911e-004
3,392227e+003;-4,288078e-004
3,394155e+003;-4,997381e-004
3,396083e+003;-5,492800e-004
3,398012e+003;7,329868e-005
3,399941e+003;4,676736e-004
3,401869e+003;3,219834e-004
3,403798e+003;3,026192e-004
3,405726e+003;-7,905062e-005
3,407655e+003;-5,863416e-004
3,409583e+003;-2,748262e-004
3,411511e+003;2,625009e-004
3,413440e+003;-5,135472e-005
3,415369e+003;-7,788457e-004
3,417297e+003;-9,423031e-004
3,419226e+003;-8,347053e-004
3,421154e+003;-3,799806e-004
3,423083e+003;3,011989e-005
3,425011e+003;4,627977e-004
3,426939e+003;4,934472e-004
3,428868e+003;2,857094e-004
3,430797e+003;-1,961092e-004
3,432725e+003;-3,446229e-004
3,434654e+003;9,374631e-005
3,436582e+003;1,387482e-003
3,438510e+003;1,175296e-003
3,440439e+003;4,118756e-005
3,442367e+003;-4,424784e-004
3,444296e+003;5,772333e-005
3,446225e+003;-1,092292e-004
3,448153e+003;2,972146e-004
3,450082e+003;-3,910044e-004
3,452010e+003;-3,520721e-004
3,453938e+003;1,126460e-003
3,455867e+003;1,935591e-003
3,457795e+003;1,085900e-003
3,459724e+003;-2,846121e-005
3,461653e+003;4,464123e-004
3,463581e+003;1,060323e-003
3,465510e+003;6,284439e-004
3,467438e+003;-9,047963e-005
3,469366e+003;2,562017e-004
3,471295e+003;1,434918e-003
3,473223e+003;8,970027e-004
3,475152e+003;-9,188944e-004
3,477081e+003;-6,512580e-004
3,479009e+003;1,237401e-004
3,480938e+003;8,165272e-004
3,482866e+003;1,034899e-004
3,484794e+003;-2,001086e-003
3,486723e+003;-1,716162e-003
3,488651e+003;-5,601671e-004
3,490580e+003;-4,151497e-005
3,492509e+003;4,329463e-004
3,494437e+003;1,205730e-003
3,496365e+003;7,852905e-004
3,498294e+003;4,272748e-004
3,500222e+003;7,477497e-004
3,502151e+003;8,622742e-004
3,504079e+003;1,048333e-003
3,506008e+003;6,481545e-004
3,507937e+003;1,885073e-004
3,509865e+003;4,910257e-004
3,511793e+003;3,758032e-004
3,513722e+003;3,650254e-004
3,515650e+003;3,780914e-004
3,517579e+003;3,504012e-004
3,519507e+003;-1,898166e-004
3,521436e+003;3,437691e-004
3,523365e+003;1,192340e-003
3,525293e+003;1,270725e-003
3,527221e+003;7,303579e-004
3,529150e+003;6,465285e-004
3,531078e+003;6,758968e-004
3,533007e+003;3,927496e-004
3,534935e+003;7,618562e-004
3,536864e+003;7,378588e-004
3,538792e+003;1,746191e-003
3,540721e+003;2,046967e-003
3,542649e+003;1,653883e-003
3,544578e+003;8,352503e-004
3,546506e+003;-6,587019e-004
3,548435e+003;-2,668127e-004
3,550363e+003;1,015851e-003
3,552292e+003;6,816048e-004
3,554220e+003;-1,959768e-004
3,556149e+003;-1,664004e-004
3,558077e+003;8,970027e-004
3,560006e+003;9,202783e-004
3,561934e+003;9,696102e-005
3,563863e+003;-7,967718e-004
3,565791e+003;-1,869502e-003
3,567720e+003;-1,533054e-003
3,569648e+003;-7,144777e-004
3,571577e+003;1,206578e-004
3,573505e+003;6,262871e-004
3,575434e+003;-5,542971e-005
3,577362e+003;-3,346905e-004
3,579291e+003;-3,343594e-004
3,581219e+003;-4,798140e-004
3,583148e+003;-3,780936e-004
3,585076e+003;1,497917e-004
3,587005e+003;1,048167e-003
3,588933e+003;8,460730e-004
3,590862e+003;6,608972e-004
3,592790e+003;-2,422748e-004
3,594719e+003;-7,963089e-004
3,596647e+003;-2,178017e-004
3,598576e+003;9,099561e-005
3,600504e+003;2,994361e-004
3,602433e+003;3,697012e-004
3,604361e+003;3,441008e-004
3,606290e+003;-6,361713e-004
3,608218e+003;-2,313936e-003
3,610147e+003;-2,292678e-003
3,612075e+003;-9,072226e-004
3,614004e+003;7,259437e-004
3,615932e+003;5,964244e-004
3,617861e+003;-4,598761e-005
3,619789e+003;-1,230424e-004
3,621718e+003;2,017006e-004
3,623646e+003;5,520988e-004
3,625575e+003;5,565776e-004
3,627503e+003;2,650869e-004
3,629432e+003;-4,456891e-004
3,631360e+003;1,080967e-004
3,633289e+003;9,390059e-004
3,635217e+003;9,052702e-004
3,637146e+003;6,143485e-005
3,639074e+003;-6,917514e-004
3,641003e+003;-1,344055e-003
3,642931e+003;-1,275178e-003
3,644860e+003;-1,317860e-003
3,646788e+003;-3,387237e-003
3,648717e+003;-3,817608e-003
3,650645e+003;-3,780429e-005
3,652574e+003;5,293405e-004
3,654502e+003;-9,147345e-005
3,656431e+003;-1,472991e-003
3,658359e+003;-1,321031e-003
3,660288e+003;-1,139243e-003
3,662216e+003;-7,186788e-004
3,664145e+003;-1,488789e-004
3,666073e+003;3,729512e-004
3,668002e+003;1,680221e-004
3,669930e+003;-2,024680e-004
3,671859e+003;-8,929384e-004
3,673787e+003;-1,517932e-003
3,675716e+003;-1,887647e-003
3,677644e+003;-1,102361e-003
3,679573e+003;-1,256347e-003
3,681501e+003;-9,216056e-004
3,683430e+003;-6,601245e-004
3,685358e+003;-5,107921e-004
3,687287e+003;-7,688571e-004
3,689215e+003;-1,201764e-003
3,691144e+003;-1,118192e-003
3,693072e+003;-8,996838e-004
3,695001e+003;-1,092942e-003
3,696929e+003;-9,543376e-004
3,698858e+003;-3,989163e-004
3,700786e+003;-4,858707e-004
3,702715e+003;-1,098560e-003
3,704643e+003;-5,254860e-004
3,706572e+003;-7,656602e-005
3,708500e+003;1,348765e-004
3,710429e+003;-4,066955e-004
3,712357e+003;-1,215344e-003
3,714286e+003;-1,295363e-003
3,716214e+003;-5,286961e-004
3,718143e+003;4,357987e-004
3,720071e+003;1,241184e-003
3,722000e+003;8,670218e-004
3,723928e+003;4,123500e-004
3,725857e+003;-5,496589e-005
3,727785e+003;-6,377593e-004
3,729714e+003;-1,025480e-003
3,731642e+003;-1,345838e-003
3,733571e+003;-4,039811e-004
3,735499e+003;-4,107672e-004
3,737427e+003;-8,803070e-004
3,739356e+003;-1,204870e-003
3,741285e+003;-1,508488e-003
3,743213e+003;-1,655564e-003
3,745142e+003;-1,532294e-003
3,747070e+003;-2,078058e-003
3,748999e+003;-4,023918e-003
3,750927e+003;-5,303065e-003
3,752855e+003;-2,049071e-003
3,754784e+003;-5,812789e-004
3,756713e+003;-1,008059e-003
3,758641e+003;-9,582718e-004
3,760570e+003;-7,695186e-004
3,762498e+003;-5,303839e-004
3,764427e+003;-5,778706e-004
3,766355e+003;-4,688585e-004
3,768283e+003;2,256487e-005
3,770212e+003;-1,170802e-003
3,772141e+003;-1,448224e-003
3,774069e+003;-9,350294e-004
3,775998e+003;-4,262259e-004
3,777926e+003;-4,653501e-004
3,779854e+003;2,276368e-005
3,781783e+003;-3,082360e-004
3,783711e+003;-1,271775e-003
3,785640e+003;-6,918837e-004
3,787569e+003;-1,355633e-004
3,789497e+003;-1,732876e-005
3,791426e+003;-4,982819e-004
3,793354e+003;-8,637402e-004
3,795282e+003;-7,313479e-004
3,797211e+003;-2,620774e-004
3,799139e+003;-1,844180e-004
3,801068e+003;-1,065046e-003
3,802997e+003;-3,811392e-004
3,804925e+003;-4,091782e-004
3,806854e+003;-1,278911e-003
3,808782e+003;-7,159993e-004
3,810710e+003;-6,470596e-005
3,812639e+003;-4,468145e-004
3,814567e+003;-7,802349e-004
3,816496e+003;-8,583169e-004
3,818425e+003;-1,812158e-003
3,820353e+003;-2,569813e-003
3,822281e+003;-1,885997e-003
3,824210e+003;-1,149785e-003
3,826138e+003;4,051863e-004
3,828067e+003;2,613074e-004
3,829995e+003;-3,506816e-004
3,831924e+003;-1,069541e-003
3,833853e+003;-1,286741e-003
3,835781e+003;1,632158e-004
3,837709e+003;-2,111119e-004
3,839638e+003;-8,415178e-004
3,841566e+003;-3,293600e-004
3,843495e+003;-4,932182e-004
3,845423e+003;-9,927861e-004
3,847352e+003;-7,444581e-005
3,849281e+003;5,037638e-004
3,851209e+003;4,039924e-004
3,853137e+003;6,661072e-004
3,855066e+003;-1,602748e-003
3,856994e+003;-8,395997e-004
3,858923e+003;-4,056362e-004
3,860851e+003;-9,121493e-004
3,862780e+003;-1,577262e-003
3,864708e+003;-2,039178e-003
3,866637e+003;-1,026703e-003
3,868565e+003;-1,059823e-003
3,870494e+003;-1,316175e-003
3,872422e+003;-2,982033e-004
3,874351e+003;-3,926265e-004
3,876279e+003;-9,059993e-004
3,878208e+003;-4,658135e-004
3,880136e+003;9,453483e-004
3,882065e+003;3,420448e-004
3,883993e+003;-1,079820e-003
3,885922e+003;-1,509545e-003
3,887850e+003;-4,740880e-004
3,889779e+003;-3,324060e-004
3,891707e+003;-4,059011e-004
3,893636e+003;-5,256846e-004
3,895564e+003;-3,742533e-004
3,897493e+003;-3,349884e-004
3,899421e+003;-1,199154e-003
3,901350e+003;-1,313962e-003
3,903278e+003;-2,132828e-003
3,905207e+003;-2,219469e-003
3,907135e+003;-1,442049e-003
3,909064e+003;-9,999598e-004
3,910992e+003;-5,933234e-004
3,912921e+003;-3,943148e-004
3,914849e+003;1,512169e-004
3,916778e+003;-5,251551e-004
3,918706e+003;-1,344286e-003
3,920635e+003;-3,971286e-004
3,922563e+003;3,212208e-004
3,924492e+003;-1,285742e-004
3,926420e+003;-1,129164e-003
3,928349e+003;-1,217723e-003
3,930277e+003;-1,396539e-003
3,932206e+003;-8,031550e-004
3,934134e+003;-2,609516e-004
3,936063e+003;-5,285637e-004
3,937991e+003;-5,142008e-004
3,939920e+003;-8,917480e-004
3,941848e+003;-1,607171e-003
3,943777e+003;-1,969587e-003
3,945705e+003;-1,139210e-003
3,947634e+003;-2,090707e-005
3,949562e+003;5,367717e-004
3,951491e+003;-2,415131e-004
3,953419e+003;-6,003050e-004
3,955348e+003;-6,099668e-004
3,957276e+003;-2,516464e-004
3,959205e+003;1,096751e-005
3,961133e+003;-2,301543e-004
3,963062e+003;-8,368549e-004
3,964990e+003;-1,037413e-003
3,966919e+003;-7,674018e-004
3,968847e+003;-7,029989e-004
3,970776e+003;-8,925085e-004
3,972704e+003;-6,823231e-004
3,974633e+003;-1,228768e-004
3,976561e+003;7,976095e-005
3,978490e+003;-5,615857e-005
3,980418e+003;-7,291647e-004
3,982347e+003;-1,082299e-003
3,984275e+003;-1,403144e-003
3,986204e+003;-1,307917e-003
3,988132e+003;-8,359950e-004
3,990061e+003;-1,026604e-003
3,991989e+003;-8,733959e-004
3,993918e+003;-7,045206e-004
3,995846e+003;-1,031430e-003
3,997775e+003;-8,002114e-004
3,999703e+003;-6,452366e-004
4,001632e+003;-5,798070e-005
4,003560e+003;-2,549910e-004
4,005489e+003;-7,028666e-004
4,007417e+003;-8,590444e-004
4,009346e+003;-1,055956e-003
4,011274e+003;-1,651636e-003
4,013203e+003;-1,684445e-003
4,015131e+003;-6,273373e-004
4,017060e+003;-3,297573e-004
4,018988e+003;-1,872332e-004
4,020917e+003;-3,029051e-004
4,022845e+003;-1,354526e-003
4,024774e+003;-1,548539e-003
4,026702e+003;-1,222052e-003
4,028631e+003;-1,581289e-003
4,030559e+003;-1,810112e-003
4,032488e+003;-1,423522e-003
4,034416e+003;-7,663764e-004
4,036345e+003;-4,694212e-004
4,038273e+003;-6,902296e-004
4,040202e+003;-6,303812e-004
4,042130e+003;-5,473937e-004
4,044059e+003;-8,332832e-004
4,045987e+003;-1,377283e-003
4,047916e+003;-1,453442e-003
4,049844e+003;-1,101700e-003
4,051773e+003;-1,237647e-003
4,053701e+003;-1,462721e-003
4,055630e+003;-1,607270e-003
4,057558e+003;-1,327473e-003
4,059487e+003;-1,191587e-003
4,061415e+003;-1,584326e-003
4,063344e+003;-1,794835e-003
4,065272e+003;-1,666951e-003
4,067201e+003;-1,541869e-003
4,069129e+003;-1,133195e-003
4,071058e+003;-2,019713e-004
4,072986e+003;6,428051e-006
4,074915e+003;-8,644015e-004
4,076843e+003;-1,441982e-003
4,078771e+003;-1,308016e-003
4,080700e+003;-6,764345e-004
4,082629e+003;-5,238644e-004
4,084557e+003;-6,013308e-004
4,086486e+003;-5,415032e-004
4,088414e+003;-6,426229e-004
4,090343e+003;-1,073937e-003
4,092271e+003;-1,396473e-003
4,094199e+003;-1,271247e-003
4,096128e+003;-9,111243e-004
4,098057e+003;6,945450e-005
4,099985e+003;2,575941e-004
4,101914e+003;-7,885830e-006
4,103842e+003;-3,753789e-004
4,105771e+003;-2,673094e-004
4,107699e+003;-9,647560e-005
4,109627e+003;-2,335322e-004
4,111556e+003;-4,063645e-004
4,113484e+003;-7,355134e-005
4,115413e+003;1,508523e-004
4,117341e+003;-5,113547e-004
4,119270e+003;-1,392906e-003
4,121199e+003;-1,399049e-003
4,123127e+003;-1,278085e-003
4,125056e+003;-1,006571e-003
4,126984e+003;-8,764051e-004
4,128913e+003;-4,292381e-004
4,130841e+003;1,254967e-004
4,132770e+003;-1,921349e-004
4,134698e+003;-8,400627e-004
4,136626e+003;3,857521e-004
4,138555e+003;-2,302755e-005
4,140483e+003;-5,249234e-004
4,142412e+003;-3,082028e-004
4,144340e+003;-4,027562e-004
4,146269e+003;-2,884354e-004
4,148197e+003;-2,365789e-004
4,150126e+003;5,997303e-006
4,152055e+003;3,695023e-004
4,153983e+003;2,711210e-004
4,155912e+003;5,830865e-004
4,157840e+003;9,151648e-004
4,159769e+003;6,478890e-004
4,161697e+003;-5,466773e-005
4,163625e+003;-1,166162e-004
4,165554e+003;1,323575e-004
4,167482e+003;-4,307404e-006
4,169411e+003;-1,188547e-003
4,171339e+003;-1,446540e-003
4,173268e+003;-9,065283e-004
4,175196e+003;-7,345565e-004
4,177125e+003;-1,835519e-003
4,179053e+003;-1,691508e-003
4,180982e+003;-3,951093e-004
4,182911e+003;-4,967264e-004
4,184839e+003;-8,446263e-004
4,186768e+003;-2,263459e-004
4,188696e+003;4,187842e-004
4,190625e+003;-2,145893e-004
4,192553e+003;-1,119117e-003
4,194481e+003;-9,795626e-004
4,196410e+003;-4,271196e-004
4,198338e+003;-1,652411e-004
4,200267e+003;-3,948445e-004
4,202195e+003;-8,112908e-004
4,204124e+003;-6,753428e-004
4,206052e+003;-4,585649e-004
4,207981e+003;-1,420219e-003
4,209909e+003;-2,308531e-003
4,211838e+003;-1,885832e-003
4,213767e+003;-7,135514e-004
4,215695e+003;-2,010439e-004
4,217624e+003;-2,491608e-005
4,219552e+003;3,091843e-004
4,221480e+003;-2,867136e-004
4,223409e+003;-1,394987e-003
4,225337e+003;-1,438119e-003
4,227266e+003;-1,780613e-003
4,229194e+003;-1,224398e-003
4,231123e+003;-4,418164e-004
4,233051e+003;1,302694e-004
4,234980e+003;-3,121114e-005
4,236908e+003;-7,852953e-004
4,238837e+003;-5,646675e-004
4,240765e+003;-1,182393e-004
4,242694e+003;1,962973e-004
4,244623e+003;-3,194272e-004
4,246551e+003;-1,214485e-003
4,248479e+003;-1,714512e-003
4,250408e+003;-1,439010e-003
4,252336e+003;-1,675995e-003
4,254265e+003;-7,527490e-004
4,256193e+003;2,853778e-004
4,258122e+003;-1,212868e-004
4,260050e+003;-1,451229e-003
4,261979e+003;-1,650348e-003
4,263907e+003;-1,252514e-003
4,265836e+003;-1,090661e-003
4,267764e+003;-1,359943e-003
4,269693e+003;-1,786816e-003
4,271621e+003;-9,921250e-004
4,273550e+003;-4,604846e-004
4,275479e+003;-9,991003e-004
4,277407e+003;-1,745072e-003
4,279335e+003;-2,032219e-003
4,281264e+003;-1,988816e-003
4,283192e+003;-1,139243e-003
4,285121e+003;-2,625079e-004
4,287049e+003;2,007724e-004
4,288978e+003;-4,253983e-004
4,290906e+003;-1,407207e-003
4,292835e+003;-1,491516e-003
4,294763e+003;-1,845836e-004
4,296692e+003;-1,852460e-004
4,298620e+003;-5,206212e-004
4,300549e+003;-4,813695e-004
4,302477e+003;-3,199238e-004
4,304406e+003;-8,539188e-004
4,306334e+003;-1,415562e-003
4,308263e+003;-8,990225e-004
4,310191e+003;5,507227e-005
4,312120e+003;-7,020535e-005
4,314048e+003;-6,750120e-004
4,315977e+003;-8,059661e-004
4,317905e+003;-9,101654e-004
4,319834e+003;-1,082134e-003
4,321762e+003;-7,199027e-004
4,323691e+003;-4,994734e-004
4,325619e+003;-7,565198e-004
4,327548e+003;-6,668405e-004
4,329476e+003;-2,601237e-004
4,331405e+003;-8,080828e-004
4,333333e+003;-8,374170e-004
4,335262e+003;-1,723291e-004
4,337190e+003;-5,156901e-004
4,339119e+003;-8,872389e-005
4,341047e+003;2,010708e-004
4,342976e+003;2,821286e-004
4,344904e+003;4,893008e-004
4,346833e+003;5,185921e-004
4,348761e+003;-1,425192e-004
4,350690e+003;-3,424378e-004
4,352618e+003;-3,958376e-004
4,354547e+003;-1,290012e-003
4,356475e+003;-1,236259e-003
4,358404e+003;-6,572132e-004
4,360332e+003;-7,190027e-006
4,362261e+003;2,124743e-004
4,364189e+003;-1,823646e-004
4,366118e+003;-8,011706e-004
4,368046e+003;-5,622850e-004
4,369975e+003;-1,771647e-004
4,371903e+003;-2,926737e-004
4,373832e+003;-1,551721e-004
4,375760e+003;-4,094762e-004
4,377688e+003;-5,273393e-004
4,379617e+003;-2,825414e-004
4,381546e+003;-3,273403e-004
4,383474e+003;-8,491568e-004
4,385403e+003;-1,178898e-003
4,387331e+003;-1,395845e-003
4,389260e+003;-5,416687e-004
4,391188e+003;-3,519728e-004
4,393117e+003;-3,237075e-005
4,395045e+003;-4,976200e-004
4,396974e+003;-1,086893e-003
4,398902e+003;-8,569281e-004
4,400831e+003;-5,915696e-004
4,402759e+003;-1,197997e-003
4,404688e+003;-1,013811e-003
4,406616e+003;-2,059455e-004
4,408544e+003;-7,795403e-004
4,410473e+003;-1,753685e-003
4,412402e+003;-2,544219e-003
4,414330e+003;-1,123083e-003
4,416259e+003;9,316011e-004
4,418187e+003;7,283665e-004
4,420116e+003;-2,741970e-004
4,422044e+003;-1,076779e-003
4,423973e+003;-1,433066e-003
4,425901e+003;-9,119840e-004
4,427830e+003;-9,361204e-004
4,429758e+003;-1,003431e-003
4,431687e+003;-1,575974e-003
4,433615e+003;-1,794802e-003
4,435543e+003;-1,532129e-003
4,437472e+003;-8,159870e-004
4,439400e+003;-1,279374e-003
4,441329e+003;-1,522884e-003
4,443258e+003;-9,688513e-004
4,445186e+003;-9,587932e-005
4,447115e+003;-4,974545e-004
4,449043e+003;-5,625497e-004
4,450972e+003;7,406090e-005
4,452900e+003;-4,416543e-005
4,454829e+003;-7,661118e-004
4,456757e+003;-9,712977e-004
4,458686e+003;-1,094462e-003
4,460614e+003;-1,168357e-003
4,462542e+003;-1,103914e-003
4,464471e+003;-3,244929e-004
4,466399e+003;2,572294e-004
4,468328e+003;-2,868791e-004
4,470256e+003;-1,064021e-003
4,472185e+003;-1,290045e-003
4,474113e+003;-5,076480e-004
4,476042e+003;-2,158809e-004
4,477971e+003;-1,513507e-003
4,479899e+003;-2,370225e-003
4,481828e+003;-1,545270e-003
4,483756e+003;-7,616797e-004
4,485685e+003;-7,635319e-004
4,487613e+003;-3,026071e-004
4,489542e+003;5,503736e-004
4,491470e+003;2,169165e-004
4,493398e+003;1,953691e-004
4,495327e+003;-4,997381e-004
4,497255e+003;-1,003828e-003
4,499184e+003;2,659158e-004
