5,245513e+002;5,808310e-001
5,264797e+002;1,789174e-001
5,284083e+002;4,682037e-002
5,303367e+002;2,564057e-002
5,322653e+002;-3,130421e-002
5,341937e+002;3,089426e-002
5,361223e+002;6,681019e-002
5,380507e+002;6,572700e-002
5,399792e+002;3,121353e-002
5,419077e+002;-4,426439e-004
5,438362e+002;-2,098928e-002
5,457647e+002;2,142454e-003
5,476932e+002;4,358049e-002
5,496217e+002;3,467661e-002
5,515502e+002;3,440236e-002
5,534787e+002;5,701814e-002
5,554072e+002;6,139446e-002
5,573357e+002;5,036692e-002
5,592642e+002;3,861718e-002
5,611927e+002;1,755540e-002
5,631212e+002;1,240036e-002
5,650497e+002;1,817430e-002
5,669782e+002;3,126527e-002
5,689067e+002;3,424641e-002
5,708352e+002;2,853347e-002
5,727637e+002;3,610439e-002
5,746922e+002;4,514844e-002
5,766207e+002;3,677877e-002
5,785492e+002;1,762251e-002
5,804777e+002;1,509516e-002
5,824062e+002;9,769661e-003
5,843347e+002;1,571513e-002
5,862632e+002;2,524083e-002
5,881917e+002;3,179953e-002
5,901202e+002;3,090095e-002
5,920486e+002;2,307073e-002
5,939772e+002;1,864060e-002
5,959056e+002;2,020200e-002
5,978342e+002;2,541750e-002
5,997626e+002;2,347044e-002
6,016912e+002;2,087030e-002
6,036196e+002;2,517232e-002
6,055482e+002;2,453923e-002
6,074766e+002;2,330061e-002
6,094052e+002;2,378270e-002
6,113336e+002;2,242437e-002
6,132621e+002;2,167760e-002
6,151906e+002;1,710467e-002
6,171191e+002;1,841812e-002
6,190476e+002;2,677082e-002
6,209761e+002;3,084865e-002
6,229046e+002;2,733969e-002
6,248331e+002;2,765948e-002
6,267616e+002;2,929479e-002
6,286901e+002;3,208305e-002
6,306186e+002;3,214035e-002
6,325471e+002;3,059263e-002
6,344756e+002;3,018220e-002
6,364041e+002;2,864484e-002
6,383326e+002;2,580295e-002
6,402611e+002;2,516294e-002
6,421896e+002;2,536593e-002
6,441181e+002;2,270906e-002
6,460466e+002;2,131911e-002
6,479751e+002;2,190071e-002
6,499036e+002;2,091679e-002
6,518321e+002;2,055461e-002
6,537606e+002;2,175399e-002
6,556891e+002;2,300631e-002
6,576176e+002;2,304103e-002
6,595461e+002;2,415703e-002
6,614745e+002;2,493594e-002
6,634031e+002;2,529248e-002
6,653315e+002;2,630959e-002
6,672601e+002;2,725067e-002
6,691885e+002;2,482521e-002
6,711171e+002;2,490717e-002
6,730455e+002;2,594721e-002
6,749741e+002;2,653093e-002
6,769025e+002;2,658813e-002
6,788311e+002;2,743759e-002
6,807595e+002;2,835411e-002
6,826880e+002;2,774438e-002
6,846165e+002;2,689922e-002
6,865450e+002;2,637313e-002
6,884735e+002;2,692284e-002
6,904020e+002;2,778408e-002
6,923305e+002;2,755334e-002
6,942590e+002;2,782551e-002
6,961875e+002;2,831591e-002
6,981160e+002;2,858778e-002
7,000445e+002;2,929549e-002
7,019730e+002;3,002967e-002
7,039015e+002;2,996076e-002
7,058300e+002;3,118936e-002
7,077585e+002;3,172798e-002
7,096870e+002;2,988114e-002
7,116155e+002;2,591848e-002
7,135440e+002;2,105974e-002
7,154725e+002;1,932035e-002
7,174010e+002;2,033192e-002
7,193295e+002;1,983370e-002
7,212580e+002;2,024161e-002
7,231865e+002;2,233116e-002
7,251150e+002;2,428235e-002
7,270435e+002;2,525621e-002
7,289720e+002;2,488839e-002
7,309005e+002;2,500434e-002
7,328290e+002;2,610208e-002
7,347574e+002;2,693934e-002
7,366860e+002;2,677540e-002
7,386144e+002;2,578639e-002
7,405430e+002;2,527742e-002
7,424714e+002;2,421266e-002
7,444000e+002;2,127892e-002
7,463284e+002;1,928402e-002
7,482570e+002;2,038772e-002
7,501854e+002;2,137044e-002
7,521140e+002;2,132819e-002
7,540424e+002;1,994088e-002
7,559709e+002;1,837557e-002
7,578994e+002;1,841843e-002
7,598279e+002;1,868553e-002
7,617564e+002;1,904888e-002
7,636849e+002;2,007994e-002
7,656134e+002;2,134364e-002
7,675419e+002;2,270260e-002
7,694704e+002;2,284067e-002
7,713989e+002;2,095476e-002
7,733274e+002;1,776052e-002
7,752559e+002;1,534491e-002
7,771844e+002;1,280873e-002
7,791129e+002;1,096076e-002
7,810414e+002;9,991446e-003
7,829699e+002;9,753937e-003
7,848984e+002;1,023862e-002
7,868269e+002;1,142294e-002
7,887554e+002;1,252434e-002
7,906839e+002;1,354291e-002
7,926124e+002;1,386987e-002
7,945409e+002;1,349714e-002
7,964694e+002;1,340630e-002
7,983979e+002;1,371605e-002
8,003264e+002;1,437988e-002
8,022549e+002;1,473705e-002
8,041833e+002;1,509921e-002
8,061119e+002;1,529795e-002
8,080403e+002;1,444565e-002
8,099689e+002;1,444935e-002
8,118973e+002;1,593767e-002
8,138259e+002;1,727328e-002
8,157543e+002;1,678792e-002
8,176829e+002;1,586450e-002
8,196113e+002;1,552536e-002
8,215399e+002;1,541683e-002
8,234683e+002;1,542129e-002
8,253969e+002;1,600903e-002
8,273253e+002;1,783947e-002
8,292538e+002;1,893739e-002
8,311823e+002;1,823878e-002
8,331108e+002;1,660236e-002
8,350393e+002;1,457470e-002
8,369678e+002;1,433629e-002
8,388963e+002;1,681127e-002
8,408248e+002;1,916630e-002
8,427533e+002;1,999153e-002
8,446818e+002;1,978039e-002
8,466103e+002;1,905588e-002
8,485388e+002;1,783498e-002
8,504673e+002;1,658367e-002
8,523958e+002;1,543797e-002
8,543243e+002;1,433618e-002
8,562528e+002;1,400060e-002
8,581813e+002;1,387076e-002
8,601098e+002;1,413976e-002
8,620383e+002;1,390979e-002
8,639668e+002;1,406702e-002
8,658953e+002;1,409180e-002
8,678238e+002;1,372228e-002
8,697523e+002;1,302343e-002
8,716808e+002;1,273205e-002
8,736093e+002;1,397747e-002
8,755378e+002;1,445192e-002
8,774662e+002;1,399961e-002
8,793948e+002;1,450440e-002
8,813232e+002;1,536907e-002
8,832518e+002;1,470377e-002
8,851802e+002;1,488635e-002
8,871088e+002;1,607484e-002
8,890372e+002;1,608694e-002
8,909658e+002;1,610517e-002
8,928942e+002;1,713797e-002
8,948228e+002;1,716606e-002
8,967512e+002;1,674115e-002
8,986797e+002;1,693745e-002
9,006082e+002;1,749910e-002
9,025367e+002;1,688619e-002
9,044652e+002;1,656188e-002
9,063937e+002;1,679233e-002
9,083222e+002;1,736848e-002
9,102507e+002;1,757527e-002
9,121792e+002;1,774513e-002
9,141077e+002;1,819534e-002
9,160362e+002;1,859775e-002
9,179647e+002;1,844699e-002
9,198932e+002;1,837419e-002
9,218217e+002;1,818588e-002
9,237502e+002;1,775931e-002
9,256787e+002;1,760885e-002
9,276072e+002;1,804182e-002
9,295357e+002;1,851894e-002
9,314642e+002;1,889295e-002
9,333927e+002;1,882063e-002
9,353212e+002;1,889832e-002
9,372497e+002;1,899325e-002
9,391782e+002;1,888921e-002
9,411067e+002;1,860940e-002
9,430352e+002;1,928526e-002
9,449637e+002;2,006974e-002
9,468922e+002;1,978438e-002
9,488207e+002;1,982156e-002
9,507491e+002;2,030983e-002
9,526777e+002;2,084461e-002
9,546061e+002;2,106924e-002
9,565347e+002;2,035983e-002
9,584631e+002;2,038872e-002
9,603917e+002;2,098981e-002
9,623201e+002;2,173563e-002
9,642487e+002;2,246027e-002
9,661771e+002;2,408274e-002
9,681057e+002;2,596424e-002
9,700341e+002;2,710531e-002
9,719626e+002;2,710612e-002
9,738911e+002;2,577869e-002
9,758196e+002;2,307706e-002
9,777481e+002;2,119263e-002
9,796766e+002;1,964049e-002
9,816051e+002;1,780850e-002
9,835336e+002;1,719350e-002
9,854621e+002;1,723080e-002
9,873906e+002;1,694916e-002
9,893191e+002;1,702979e-002
9,912476e+002;1,718016e-002
9,931761e+002;1,699457e-002
9,951046e+002;1,661517e-002
9,970331e+002;1,613003e-002
9,989616e+002;1,598521e-002
1,000890e+003;1,592578e-002
1,002819e+003;1,534323e-002
1,004747e+003;1,444794e-002
1,006676e+003;1,377700e-002
1,008604e+003;1,328402e-002
1,010533e+003;1,292412e-002
1,012461e+003;1,279978e-002
1,014390e+003;1,295252e-002
1,016318e+003;1,335525e-002
1,018247e+003;1,379017e-002
1,020175e+003;1,439745e-002
1,022104e+003;1,471422e-002
1,024032e+003;1,495178e-002
1,025961e+003;1,493367e-002
1,027889e+003;1,447579e-002
1,029818e+003;1,454466e-002
1,031746e+003;1,543320e-002
1,033675e+003;1,744801e-002
1,035603e+003;1,954679e-002
1,037531e+003;2,108729e-002
1,039460e+003;2,172090e-002
1,041389e+003;2,247120e-002
1,043317e+003;2,386072e-002
1,045245e+003;2,482991e-002
1,047174e+003;2,596448e-002
1,049103e+003;2,639130e-002
1,051031e+003;2,590385e-002
1,052959e+003;2,508971e-002
1,054888e+003;2,440736e-002
1,056817e+003;2,437034e-002
1,058745e+003;2,518770e-002
1,060673e+003;2,616246e-002
1,062602e+003;2,683961e-002
1,064531e+003;2,696828e-002
1,066459e+003;2,620089e-002
1,068387e+003;2,530429e-002
1,070316e+003;2,452938e-002
1,072245e+003;2,420818e-002
1,074173e+003;2,413353e-002
1,076101e+003;2,437637e-002
1,078030e+003;2,514935e-002
1,079958e+003;2,512039e-002
1,081887e+003;2,437483e-002
1,083815e+003;2,277523e-002
1,085744e+003;2,093598e-002
1,087672e+003;2,025123e-002
1,089601e+003;2,036639e-002
1,091529e+003;2,030063e-002
1,093458e+003;2,053863e-002
1,095386e+003;2,097273e-002
1,097315e+003;2,161133e-002
1,099243e+003;2,254818e-002
1,101172e+003;2,341921e-002
1,103100e+003;2,398886e-002
1,105029e+003;2,478234e-002
1,106957e+003;2,570855e-002
1,108886e+003;2,634796e-002
1,110814e+003;2,586660e-002
1,112743e+003;2,537706e-002
1,114671e+003;2,627692e-002
1,116600e+003;2,769913e-002
1,118528e+003;2,822269e-002
1,120457e+003;2,737357e-002
1,122385e+003;2,551134e-002
1,124314e+003;2,466645e-002
1,126242e+003;2,546851e-002
1,128171e+003;2,487696e-002
1,130099e+003;2,374640e-002
1,132028e+003;2,352242e-002
1,133956e+003;2,273902e-002
1,135885e+003;2,257271e-002
1,137813e+003;2,284650e-002
1,139742e+003;2,142057e-002
1,141670e+003;2,118435e-002
1,143599e+003;2,158883e-002
1,145527e+003;2,127589e-002
1,147456e+003;2,126162e-002
1,149384e+003;2,332567e-002
1,151313e+003;2,482822e-002
1,153241e+003;2,368149e-002
1,155170e+003;2,336280e-002
1,157098e+003;2,291635e-002
1,159027e+003;2,071423e-002
1,160955e+003;1,967457e-002
1,162884e+003;1,862362e-002
1,164812e+003;1,748661e-002
1,166741e+003;1,686118e-002
1,168669e+003;1,600601e-002
1,170598e+003;1,509567e-002
1,172526e+003;1,488111e-002
1,174455e+003;1,523655e-002
1,176383e+003;1,525553e-002
1,178312e+003;1,516316e-002
1,180240e+003;1,504401e-002
1,182169e+003;1,491101e-002
1,184097e+003;1,464941e-002
1,186026e+003;1,442318e-002
1,187954e+003;1,435420e-002
1,189883e+003;1,450803e-002
1,191811e+003;1,566992e-002
1,193740e+003;1,671481e-002
1,195668e+003;1,743777e-002
1,197597e+003;1,807861e-002
1,199525e+003;1,772511e-002
1,201454e+003;1,677504e-002
1,203382e+003;1,567422e-002
1,205311e+003;1,446541e-002
1,207239e+003;1,325296e-002
1,209168e+003;1,157911e-002
1,211096e+003;9,948625e-003
1,213025e+003;8,840028e-003
1,214953e+003;7,905059e-003
1,216882e+003;6,941089e-003
1,218810e+003;6,129779e-003
1,220739e+003;6,153942e-003
1,222667e+003;6,418172e-003
1,224596e+003;6,435592e-003
1,226524e+003;6,063918e-003
1,228453e+003;6,286844e-003
1,230381e+003;7,923753e-003
1,232310e+003;8,986541e-003
1,234238e+003;8,823019e-003
1,236167e+003;9,211481e-003
1,238095e+003;9,938828e-003
1,240024e+003;1,099165e-002
1,241952e+003;1,266494e-002
1,243881e+003;1,450169e-002
1,245809e+003;1,587965e-002
1,247738e+003;1,657255e-002
1,249666e+003;1,666330e-002
1,251595e+003;1,639028e-002
1,253523e+003;1,579123e-002
1,255452e+003;1,479337e-002
1,257380e+003;1,399050e-002
1,259309e+003;1,301336e-002
1,261237e+003;1,153524e-002
1,263166e+003;1,053057e-002
1,265094e+003;1,024401e-002
1,267023e+003;1,014930e-002
1,268951e+003;1,012787e-002
1,270880e+003;1,015310e-002
1,272808e+003;1,100507e-002
1,274737e+003;1,208504e-002
1,276665e+003;1,244960e-002
1,278594e+003;1,245352e-002
1,280522e+003;1,198588e-002
1,282451e+003;1,113991e-002
1,284379e+003;1,048203e-002
1,286308e+003;9,757733e-003
1,288236e+003;9,215609e-003
1,290165e+003;8,962931e-003
1,292093e+003;8,824981e-003
1,294022e+003;8,477577e-003
1,295950e+003;8,208141e-003
1,297879e+003;7,829010e-003
1,299807e+003;7,573529e-003
1,301736e+003;7,495245e-003
1,303664e+003;6,957722e-003
1,305593e+003;6,226236e-003
1,307521e+003;5,786975e-003
1,309450e+003;5,408543e-003
1,311378e+003;5,025277e-003
1,313307e+003;4,453306e-003
1,315235e+003;3,811284e-003
1,317164e+003;3,370384e-003
1,319092e+003;3,276295e-003
1,321021e+003;3,092750e-003
1,322949e+003;2,830868e-003
1,324878e+003;2,799453e-003
1,326806e+003;2,804989e-003
1,328735e+003;2,718524e-003
1,330663e+003;2,797518e-003
1,332592e+003;2,938838e-003
1,334520e+003;2,971797e-003
1,336449e+003;2,788381e-003
1,338377e+003;2,538580e-003
1,340306e+003;2,730927e-003
1,342234e+003;3,057212e-003
1,344163e+003;3,109669e-003
1,346091e+003;3,099191e-003
1,348020e+003;3,245148e-003
1,349948e+003;3,526554e-003
1,351877e+003;3,734712e-003
1,353805e+003;3,890645e-003
1,355734e+003;4,063992e-003
1,357662e+003;4,353895e-003
1,359591e+003;4,592184e-003
1,361519e+003;4,768056e-003
1,363448e+003;5,056116e-003
1,365376e+003;5,383851e-003
1,367305e+003;5,664431e-003
1,369233e+003;5,892592e-003
1,371161e+003;5,949358e-003
1,373090e+003;5,847219e-003
1,375019e+003;6,016646e-003
1,376947e+003;6,637680e-003
1,378875e+003;7,396214e-003
1,380804e+003;8,116846e-003
1,382733e+003;8,388321e-003
1,384661e+003;8,127346e-003
1,386589e+003;8,001945e-003
1,388518e+003;8,777373e-003
1,390447e+003;8,984207e-003
1,392375e+003;8,382645e-003
1,394303e+003;7,334239e-003
1,396232e+003;6,501408e-003
1,398161e+003;5,844902e-003
1,400089e+003;5,311864e-003
1,402017e+003;5,231271e-003
1,403946e+003;4,680899e-003
1,405875e+003;4,486113e-003
1,407803e+003;4,615324e-003
1,409731e+003;4,439481e-003
1,411660e+003;4,276223e-003
1,413589e+003;4,446845e-003
1,415517e+003;4,447347e-003
1,417445e+003;5,005065e-003
1,419374e+003;7,144087e-003
1,421302e+003;9,280596e-003
1,423231e+003;1,051648e-002
1,425159e+003;1,217649e-002
1,427088e+003;1,329194e-002
1,429016e+003;1,362506e-002
1,430945e+003;1,332221e-002
1,432873e+003;1,291832e-002
1,434802e+003;1,291572e-002
1,436730e+003;1,395629e-002
1,438659e+003;1,494386e-002
1,440587e+003;1,488728e-002
1,442516e+003;1,397665e-002
1,444444e+003;1,273946e-002
1,446373e+003;1,169986e-002
1,448301e+003;1,084901e-002
1,450230e+003;1,061059e-002
1,452158e+003;1,064149e-002
1,454087e+003;9,949677e-003
1,456015e+003;8,121809e-003
1,457944e+003;7,803236e-003
1,459872e+003;8,929716e-003
1,461801e+003;9,159160e-003
1,463729e+003;8,446697e-003
1,465658e+003;8,245656e-003
1,467586e+003;8,743530e-003
1,469515e+003;8,511298e-003
1,471443e+003;7,662517e-003
1,473372e+003;7,025840e-003
1,475300e+003;7,081676e-003
1,477229e+003;6,501643e-003
1,479157e+003;6,223715e-003
1,481086e+003;6,093017e-003
1,483014e+003;5,982379e-003
1,484943e+003;5,539136e-003
1,486871e+003;4,929220e-003
1,488800e+003;4,462311e-003
1,490728e+003;5,152067e-003
1,492657e+003;5,356276e-003
1,494585e+003;4,554547e-003
1,496514e+003;3,427722e-003
1,498442e+003;2,932600e-003
1,500371e+003;2,576443e-003
1,502299e+003;1,997899e-003
1,504228e+003;1,435683e-003
1,506156e+003;4,495965e-004
1,508085e+003;-2,096878e-004
1,510013e+003;1,018328e-004
1,511942e+003;7,528706e-005
1,513870e+003;1,547967e-004
1,515799e+003;-2,645941e-004
1,517727e+003;-6,959858e-004
1,519656e+003;-3,588259e-004
1,521584e+003;-1,972684e-004
1,523513e+003;-2,400891e-004
1,525441e+003;-3,549524e-004
1,527370e+003;-1,277129e-004
1,529298e+003;9,712673e-005
1,531227e+003;2,443660e-004
1,533155e+003;-1,674934e-004
1,535084e+003;-1,171462e-004
1,537012e+003;3,091512e-004
1,538941e+003;-2,332672e-004
1,540869e+003;-1,370942e-003
1,542798e+003;-3,105206e-004
1,544726e+003;1,057436e-004
1,546655e+003;3,739792e-004
1,548583e+003;2,485433e-004
1,550512e+003;2,698612e-004
1,552440e+003;5,615209e-004
1,554369e+003;3,954691e-004
1,556297e+003;-9,322918e-005
1,558226e+003;-1,225620e-003
1,560154e+003;-9,087436e-004
1,562083e+003;-1,157549e-004
1,564011e+003;9,997690e-005
1,565940e+003;2,161871e-004
1,567868e+003;2,392937e-004
1,569797e+003;1,821760e-004
1,571725e+003;6,948794e-004
1,573654e+003;8,764840e-004
1,575582e+003;1,400802e-004
1,577511e+003;1,612602e-004
1,579439e+003;6,195180e-004
1,581368e+003;9,131726e-004
1,583296e+003;1,142206e-003
1,585225e+003;1,143502e-003
1,587153e+003;1,041624e-003
1,589082e+003;1,259028e-003
1,591010e+003;1,313363e-003
1,592939e+003;1,324197e-003
1,594867e+003;1,500480e-003
1,596796e+003;1,765187e-003
1,598724e+003;1,812964e-003
1,600653e+003;1,656710e-003
1,602581e+003;1,704242e-003
1,604510e+003;1,985284e-003
1,606438e+003;2,018671e-003
1,608367e+003;2,279164e-003
1,610295e+003;3,075998e-003
1,612224e+003;3,391021e-003
1,614152e+003;3,173448e-003
1,616081e+003;2,910217e-003
1,618009e+003;2,898375e-003
1,619938e+003;3,374224e-003
1,621866e+003;3,327344e-003
1,623795e+003;3,284608e-003
1,625723e+003;3,908565e-003
1,627652e+003;4,237911e-003
1,629580e+003;4,340240e-003
1,631509e+003;4,698818e-003
1,633437e+003;4,823000e-003
1,635366e+003;4,279167e-003
1,637294e+003;4,676511e-003
1,639223e+003;5,030842e-003
1,641151e+003;4,945441e-003
1,643080e+003;5,231707e-003
1,645008e+003;5,096814e-003
1,646937e+003;4,662110e-003
1,648865e+003;5,439577e-003
1,650794e+003;5,605555e-003
1,652722e+003;3,466831e-003
1,654651e+003;4,868970e-003
1,656579e+003;6,295752e-003
1,658508e+003;6,990079e-003
1,660436e+003;7,076455e-003
1,662365e+003;6,988934e-003
1,664293e+003;7,604617e-003
1,666222e+003;8,483693e-003
1,668150e+003;8,800162e-003
1,670079e+003;9,086985e-003
1,672007e+003;1,001155e-002
1,673936e+003;1,105160e-002
1,675864e+003;1,198833e-002
1,677793e+003;1,330561e-002
1,679721e+003;1,425821e-002
1,681650e+003;1,554837e-002
1,683578e+003;1,664846e-002
1,685507e+003;1,889029e-002
1,687435e+003;1,958294e-002
1,689364e+003;2,143251e-002
1,691292e+003;2,413924e-002
1,693221e+003;2,672321e-002
1,695149e+003;2,929854e-002
1,697078e+003;3,390373e-002
1,699006e+003;3,539291e-002
1,700935e+003;4,113363e-002
1,702863e+003;4,447335e-002
1,704792e+003;4,699017e-002
1,706720e+003;4,835322e-002
1,708649e+003;4,753715e-002
1,710577e+003;4,266091e-002
1,712505e+003;3,787750e-002
1,714434e+003;3,083531e-002
1,716363e+003;2,137636e-002
1,718291e+003;1,450834e-002
1,720219e+003;1,135950e-002
1,722148e+003;8,771456e-003
1,724077e+003;6,905807e-003
1,726005e+003;7,221128e-003
1,727933e+003;5,090813e-003
1,729862e+003;3,221046e-003
1,731791e+003;3,047001e-003
1,733719e+003;2,100867e-003
1,735647e+003;1,872958e-003
1,737576e+003;2,707421e-003
1,739505e+003;2,882698e-003
1,741433e+003;5,386401e-003
1,743361e+003;5,325617e-003
1,745290e+003;3,614316e-003
1,747219e+003;3,257867e-003
1,749147e+003;3,142909e-003
1,751075e+003;2,414084e-003
1,753004e+003;1,971137e-003
1,754932e+003;1,716051e-003
1,756861e+003;1,163601e-003
1,758789e+003;1,334899e-003
1,760718e+003;1,420989e-003
1,762646e+003;1,681623e-003
1,764575e+003;2,200397e-003
1,766503e+003;2,490290e-003
1,768432e+003;3,155792e-003
1,770360e+003;3,557654e-003
1,772289e+003;5,127893e-003
1,774217e+003;7,974541e-003
1,776146e+003;9,604997e-003
1,778074e+003;1,023936e-002
1,780003e+003;9,832595e-003
1,781931e+003;8,566548e-003
1,783860e+003;6,861473e-003
1,785788e+003;4,965415e-003
1,787717e+003;3,760279e-003
1,789645e+003;3,210031e-003
1,791574e+003;3,291419e-003
1,793502e+003;4,668205e-003
1,795431e+003;6,135727e-003
1,797359e+003;7,913022e-003
1,799288e+003;8,519475e-003
1,801216e+003;9,082315e-003
1,803145e+003;9,064452e-003
1,805073e+003;7,934349e-003
1,807002e+003;6,120975e-003
1,808930e+003;4,613884e-003
1,810859e+003;2,675715e-003
1,812787e+003;1,060589e-003
1,814716e+003;8,751581e-005
1,816644e+003;-5,632777e-004
1,818573e+003;-5,548063e-004
1,820501e+003;-7,553621e-004
1,822430e+003;-9,171420e-004
1,824358e+003;-9,548665e-004
1,826287e+003;-8,373178e-004
1,828215e+003;-1,453046e-003
1,830144e+003;-2,193359e-003
1,832072e+003;-1,629883e-003
1,834001e+003;-1,385210e-003
1,835929e+003;-1,428310e-003
1,837858e+003;-1,227834e-003
1,839786e+003;-1,146282e-003
1,841715e+003;-1,368564e-003
1,843643e+003;-1,783979e-003
1,845572e+003;-1,727548e-003
1,847500e+003;-1,630048e-003
1,849429e+003;-1,438218e-003
1,851357e+003;-1,471703e-003
1,853286e+003;-1,301409e-003
1,855214e+003;-9,704051e-004
1,857143e+003;-9,059000e-004
1,859071e+003;-9,306981e-004
1,861000e+003;-1,024455e-003
1,862928e+003;-7,480191e-004
1,864857e+003;-5,107259e-004
1,866785e+003;-7,957466e-004
1,868714e+003;-1,314358e-003
1,870642e+003;-7,298925e-004
1,872571e+003;-1,403331e-004
1,874499e+003;-3,119112e-004
1,876428e+003;-4,193076e-004
1,878356e+003;-4,982157e-004
1,880285e+003;-6,334913e-004
1,882213e+003;-9,035525e-004
1,884142e+003;-1,005811e-003
1,886070e+003;-7,586367e-004
1,887999e+003;-9,409145e-004
1,889927e+003;-1,496007e-003
1,891856e+003;-2,024997e-003
1,893784e+003;-1,627209e-003
1,895713e+003;-8,238911e-004
1,897641e+003;-6,077829e-004
1,899570e+003;-9,187622e-004
1,901498e+003;-8,597058e-004
1,903427e+003;-7,714370e-004
1,905355e+003;-9,042468e-004
1,907284e+003;-1,470713e-003
1,909212e+003;-1,953622e-003
1,911141e+003;-1,717977e-003
1,913069e+003;-9,852488e-004
1,914998e+003;-7,156685e-004
1,916926e+003;-1,211478e-003
1,918855e+003;-1,216336e-003
1,920783e+003;-1,210751e-003
1,922712e+003;-1,518493e-003
1,924640e+003;-1,806846e-003
1,926569e+003;-1,842744e-003
1,928497e+003;-1,660152e-003
1,930426e+003;-1,664179e-003
1,932354e+003;-1,974370e-003
1,934283e+003;-1,748537e-003
1,936211e+003;-1,441520e-003
1,938140e+003;-1,394821e-003
1,940068e+003;-1,797409e-003
1,941997e+003;-2,294688e-003
1,943925e+003;-1,802325e-003
1,945854e+003;-1,882533e-003
1,947782e+003;-2,237797e-003
1,949711e+003;-2,096458e-003
1,951639e+003;-1,428145e-003
1,953568e+003;-1,777940e-003
1,955496e+003;-2,106878e-003
1,957425e+003;-1,256809e-003
1,959353e+003;-1,289780e-003
1,961282e+003;-1,003100e-003
1,963210e+003;-1,775003e-003
1,965139e+003;-2,420971e-003
1,967067e+003;-1,083225e-003
1,968996e+003;-7,362104e-004
1,970924e+003;-9,772484e-004
1,972853e+003;-2,031263e-003
1,974781e+003;-1,954183e-003
1,976710e+003;4,937000e-006
1,978638e+003;1,572269e-003
1,980567e+003;1,436880e-003
1,982495e+003;6,434093e-004
1,984424e+003;2,146622e-004
1,986352e+003;-1,013890e-005
1,988281e+003;-1,122719e-003
1,990209e+003;-1,408131e-003
1,992138e+003;9,278522e-005
1,994066e+003;3,210549e-004
1,995995e+003;-3,835559e-004
1,997923e+003;-5,860769e-004
1,999852e+003;-1,096379e-003
2,001780e+003;-2,056425e-003
2,003709e+003;-2,787482e-003
2,005637e+003;-2,337105e-003
2,007566e+003;-1,092247e-003
2,009494e+003;-1,613674e-003
2,011423e+003;-1,465528e-003
2,013351e+003;-4,638276e-004
2,015280e+003;-2,659186e-004
2,017208e+003;-1,244453e-003
2,019137e+003;-1,941451e-003
2,021065e+003;-2,064604e-003
2,022994e+003;-2,184953e-003
2,024922e+003;-1,837168e-003
2,026851e+003;-1,362090e-003
2,028779e+003;-1,506705e-003
2,030708e+003;-9,518579e-004
2,032636e+003;-6,448065e-004
2,034565e+003;-1,233517e-003
2,036493e+003;-1,029512e-003
2,038422e+003;-3,383655e-004
2,040350e+003;6,712840e-004
2,042279e+003;7,914978e-004
2,044207e+003;-5,717159e-004
2,046135e+003;-1,248351e-003
2,048064e+003;-1,109037e-003
2,049992e+003;4,670765e-004
2,051921e+003;-5,168879e-006
2,053850e+003;-1,111615e-003
2,055778e+003;-1,117134e-003
2,057707e+003;-6,303482e-004
2,059635e+003;-5,604319e-004
2,061563e+003;-1,002439e-003
2,063492e+003;-1,073705e-003
2,065420e+003;-4,818329e-004
2,067349e+003;1,281814e-004
2,069278e+003;-2,051838e-004
2,071206e+003;-2,604217e-004
2,073135e+003;1,210555e-004
2,075063e+003;-1,868689e-004
2,076991e+003;-1,509325e-004
2,078920e+003;2,653190e-004
2,080848e+003;3,992830e-004
2,082777e+003;5,894568e-004
2,084706e+003;2,992040e-004
2,086634e+003;-3,002894e-004
2,088563e+003;-7,453398e-004
2,090491e+003;-1,049246e-003
2,092419e+003;-1,200211e-003
2,094348e+003;-8,883422e-004
2,096276e+003;-4,229819e-004
2,098205e+003;-5,309134e-004
2,100134e+003;-3,870319e-004
2,102062e+003;-4,272189e-004
2,103990e+003;-3,287309e-004
2,105919e+003;-4,722677e-004
2,107847e+003;-7,673687e-004
2,109776e+003;-4,598557e-004
2,111704e+003;-7,207958e-004
2,113633e+003;-8,437004e-004
2,115562e+003;-5,759845e-004
2,117490e+003;-1,135641e-003
2,119418e+003;-1,632920e-003
2,121347e+003;-2,388646e-003
2,123275e+003;-2,154720e-003
2,125204e+003;-1,935777e-003
2,127132e+003;-2,361987e-003
2,129061e+003;-3,261761e-003
2,130990e+003;-4,426701e-003
2,132918e+003;-4,174017e-003
2,134846e+003;-2,578179e-003
2,136775e+003;-2,972958e-003
2,138703e+003;-3,837938e-003
2,140632e+003;-3,437831e-003
2,142560e+003;-2,897757e-003
2,144489e+003;-2,428813e-003
2,146417e+003;-1,329554e-003
2,148346e+003;-1,652560e-003
2,150274e+003;-2,452634e-003
2,152203e+003;-2,357801e-003
2,154131e+003;-3,156381e-003
2,156060e+003;-5,296257e-003
2,157988e+003;-4,747642e-003
2,159917e+003;-1,210091e-003
2,161845e+003;-1,392069e-004
2,163774e+003;3,503018e-004
2,165702e+003;5,732657e-004
2,167631e+003;4,781554e-004
2,169559e+003;-1,847492e-004
2,171488e+003;-6,809998e-004
2,173416e+003;-1,754774e-003
2,175345e+003;-2,418961e-003
2,177273e+003;-2,714092e-003
2,179202e+003;-2,224974e-003
2,181130e+003;-1,060187e-003
2,183059e+003;-2,496264e-004
2,184987e+003;-5,835290e-004
2,186916e+003;-1,473817e-003
2,188844e+003;-2,293436e-003
2,190773e+003;-1,939141e-003
2,192701e+003;-1,064881e-003
2,194630e+003;1,272865e-004
2,196558e+003;1,325232e-004
2,198487e+003;-5,386241e-004
2,200415e+003;-5,235666e-004
2,202344e+003;-4,142429e-004
2,204272e+003;-6,905936e-004
2,206201e+003;-1,340520e-003
2,208129e+003;-8,944264e-004
2,210058e+003;-6,075844e-004
2,211986e+003;-1,279737e-003
2,213915e+003;-1,585713e-003
2,215843e+003;-1,295793e-003
2,217772e+003;-1,027992e-003
2,219700e+003;-4,378112e-004
2,221629e+003;-6,331274e-004
2,223557e+003;-1,276268e-003
2,225486e+003;-1,360405e-003
2,227414e+003;-6,193304e-004
2,229343e+003;2,108168e-004
2,231271e+003;3,396905e-004
2,233200e+003;-3,439177e-005
2,235128e+003;-7,362104e-004
2,237057e+003;-4,961638e-004
2,238985e+003;-3,500857e-004
2,240914e+003;-7,040575e-004
2,242842e+003;-1,009808e-004
2,244771e+003;5,527110e-005
2,246699e+003;-5,957092e-005
2,248628e+003;4,337462e-005
2,250556e+003;1,567523e-004
2,252485e+003;-3,265457e-004
2,254413e+003;-4,621395e-004
2,256342e+003;3,689385e-004
2,258270e+003;1,891040e-004
2,260199e+003;1,430632e-004
2,262127e+003;-8,594120e-005
2,264056e+003;-3,520059e-004
2,265984e+003;7,969468e-005
2,267913e+003;1,837340e-004
2,269841e+003;-3,485296e-004
2,271770e+003;-1,250630e-004
2,273698e+003;5,856744e-004
2,275627e+003;1,254110e-003
2,277555e+003;5,594972e-004
2,279484e+003;-2,346581e-004
2,281412e+003;7,034418e-004
2,283341e+003;1,591291e-003
2,285269e+003;1,874223e-003
2,287198e+003;1,517769e-003
2,289126e+003;9,327301e-004
2,291055e+003;8,007924e-004
2,292983e+003;4,039261e-004
2,294912e+003;8,957055e-005
2,296840e+003;3,340040e-005
2,298769e+003;-1,269180e-004
2,300697e+003;-2,955213e-004
2,302626e+003;6,584233e-005
2,304554e+003;3,984539e-004
2,306483e+003;4,227310e-004
2,308411e+003;1,332009e-005
2,310340e+003;-1,931616e-004
2,312268e+003;-1,535823e-004
2,314197e+003;1,043735e-005
2,316125e+003;7,207251e-005
2,318054e+003;2,182093e-004
2,319982e+003;7,271053e-004
2,321911e+003;8,863780e-004
2,323839e+003;6,649125e-004
2,325768e+003;-6,210178e-004
2,327696e+003;-1,236325e-003
2,329625e+003;-1,185672e-003
2,331553e+003;-1,474642e-003
2,333482e+003;-1,881081e-003
2,335410e+003;-1,650315e-003
2,337339e+003;-1,348514e-003
2,339267e+003;-1,825521e-003
2,341196e+003;-1,423092e-003
2,343124e+003;-1,997622e-003
2,345053e+003;-2,549621e-003
2,346981e+003;-2,192074e-003
2,348910e+003;-1,434915e-003
2,350838e+003;-1,324929e-003
2,352767e+003;-1,572111e-003
2,354695e+003;-2,127486e-003
2,356624e+003;-2,453260e-003
2,358552e+003;-2,818658e-003
2,360481e+003;-2,407593e-003
2,362409e+003;-1,107219e-003
2,364338e+003;-2,481331e-003
2,366266e+003;-3,493974e-003
2,368195e+003;-3,062755e-003
2,370123e+003;-2,948934e-003
2,372052e+003;-1,917337e-003
2,373980e+003;-1,707548e-003
2,375909e+003;-1,436897e-003
2,377837e+003;-1,111416e-003
2,379766e+003;-1,733422e-003
2,381694e+003;-2,044619e-003
2,383623e+003;-1,659987e-003
2,385551e+003;-1,267018e-003
2,387479e+003;-1,379860e-003
2,389408e+003;-1,597961e-003
2,391337e+003;-1,380322e-003
2,393265e+003;-1,013447e-003
2,395194e+003;-5,337925e-004
2,397122e+003;-5,568580e-004
2,399051e+003;-1,114358e-003
2,400979e+003;-1,073243e-003
2,402907e+003;-1,058600e-003
2,404836e+003;-1,117101e-003
2,406765e+003;-1,084150e-003
2,408693e+003;-1,071855e-003
2,410622e+003;-1,121695e-003
2,412550e+003;-1,186234e-003
2,414479e+003;-1,077573e-003
2,416407e+003;-1,324466e-003
2,418335e+003;-1,221226e-003
2,420264e+003;-8,001123e-004
2,422193e+003;-9,551641e-004
2,424121e+003;-1,000059e-003
2,426050e+003;-8,062307e-004
2,427978e+003;-7,985578e-004
2,429906e+003;-9,113557e-004
2,431835e+003;-6,995585e-004
2,433763e+003;-1,039627e-003
2,435692e+003;-1,423555e-003
2,437621e+003;-1,340124e-003
2,439549e+003;-1,148529e-003
2,441478e+003;-6,221097e-004
2,443406e+003;-4,097410e-004
2,445334e+003;-6,422258e-004
2,447263e+003;-4,444313e-004
2,449191e+003;-1,188687e-004
2,451120e+003;2,450291e-004
2,453049e+003;7,512137e-005
2,454977e+003;-2,152516e-004
2,456906e+003;-1,865046e-004
2,458834e+003;-5,705246e-004
2,460762e+003;-1,318289e-003
2,462691e+003;-1,145555e-003
2,464619e+003;-9,179686e-004
2,466548e+003;-1,351123e-003
2,468477e+003;-1,341908e-003
2,470405e+003;-1,272502e-003
2,472333e+003;-1,094825e-003
2,474262e+003;-6,233008e-004
2,476190e+003;-6,213818e-004
2,478119e+003;-4,984805e-004
2,480047e+003;-1,165680e-003
2,481976e+003;-1,358390e-003
2,483905e+003;-1,005943e-003
2,485833e+003;-1,296387e-003
2,487761e+003;-1,153585e-003
2,489690e+003;-9,558584e-004
2,491618e+003;-9,950672e-004
2,493547e+003;-7,092180e-004
2,495475e+003;-2,220407e-004
2,497404e+003;-4,542289e-004
2,499333e+003;-1,350859e-003
2,501261e+003;-1,769162e-003
2,503189e+003;-1,512351e-003
2,505118e+003;-1,181475e-003
2,507046e+003;-1,295991e-003
2,508975e+003;-1,408396e-003
2,510903e+003;-4,329454e-004
2,512832e+003;4,609190e-005
2,514760e+003;-7,952505e-004
2,516689e+003;-1,090297e-003
2,518617e+003;-7,717346e-004
2,520546e+003;-7,298263e-004
2,522474e+003;-1,327109e-003
2,524403e+003;-1,590896e-003
2,526331e+003;-1,034405e-003
2,528260e+003;-8,849694e-004
2,530188e+003;-5,342228e-004
2,532117e+003;-7,276762e-004
2,534045e+003;-1,095420e-003
2,535974e+003;-9,423692e-004
2,537902e+003;-6,734902e-004
2,539831e+003;-7,886027e-004
2,541759e+003;-8,954514e-004
2,543688e+003;-9,485518e-004
2,545616e+003;-1,107021e-003
2,547545e+003;-9,610159e-004
2,549473e+003;-7,061085e-004
2,551402e+003;-5,130756e-004
2,553330e+003;-4,528056e-004
2,555259e+003;-6,585034e-004
2,557187e+003;-4,915634e-004
2,559116e+003;-4,959882e-005
2,561044e+003;-1,497069e-004
2,562973e+003;-4,674684e-004
2,564901e+003;-1,632539e-004
2,566830e+003;1,325382e-005
2,568758e+003;-6,499346e-004
2,570687e+003;-9,779097e-004
2,572615e+003;-8,344407e-004
2,574544e+003;-7,843692e-004
2,576472e+003;-7,631350e-004
2,578401e+003;-6,527137e-004
2,580329e+003;-6,033492e-004
2,582258e+003;-7,218213e-004
2,584186e+003;-1,001249e-003
2,586115e+003;-1,121992e-003
2,588043e+003;-1,524865e-003
2,589972e+003;-1,355120e-003
2,591900e+003;-8,454861e-004
2,593829e+003;-4,536000e-004
2,595757e+003;-5,175765e-004
2,597686e+003;-6,402077e-004
2,599614e+003;-5,036104e-004
2,601543e+003;-3,999755e-004
2,603471e+003;-4,810055e-004
2,605400e+003;-5,859114e-004
2,607328e+003;-3,641561e-004
2,609257e+003;-3,029713e-004
2,611185e+003;-2,631371e-004
2,613114e+003;7,505508e-005
2,615042e+003;-4,535813e-005
2,616971e+003;-4,227833e-004
2,618899e+003;-1,506675e-004
2,620828e+003;4,042372e-006
2,622756e+003;-1,607697e-004
2,624685e+003;-3,331675e-004
2,626613e+003;-3,804771e-004
2,628542e+003;1,539349e-004
2,630470e+003;2,395589e-004
2,632399e+003;-2,189939e-004
2,634327e+003;-2,904552e-004
2,636256e+003;-3,755444e-004
2,638184e+003;-1,858091e-004
2,640113e+003;2,538809e-004
2,642041e+003;3,536842e-004
2,643970e+003;-4,903561e-005
2,645898e+003;-2,239615e-004
2,647827e+003;-1,710042e-004
2,649755e+003;-3,478343e-004
2,651684e+003;-8,511301e-005
2,653612e+003;-3,121114e-005
2,655541e+003;-3,384648e-004
2,657469e+003;-6,367999e-004
2,659398e+003;-6,739202e-004
2,661326e+003;-6,466262e-004
2,663255e+003;-7,296940e-004
2,665183e+003;-1,016422e-003
2,667112e+003;-9,445513e-004
2,669040e+003;-9,026927e-004
2,670969e+003;-9,255072e-004
2,672897e+003;-9,399887e-004
2,674826e+003;-8,645999e-004
2,676754e+003;-1,063030e-003
2,678683e+003;-1,247559e-003
2,680611e+003;-1,242041e-003
2,682540e+003;-1,126949e-003
2,684468e+003;-1,219012e-003
2,686397e+003;-1,413878e-003
2,688325e+003;-1,440959e-003
2,690254e+003;-1,035330e-003
2,692182e+003;-8,061315e-004
2,694111e+003;-9,784717e-004
2,696039e+003;-9,937118e-004
2,697968e+003;-8,430720e-004
2,699896e+003;-7,546013e-004
2,701825e+003;-8,910536e-004
2,703753e+003;-7,990870e-004
2,705682e+003;-4,302311e-004
2,707610e+003;-7,080271e-004
2,709539e+003;-1,078564e-003
2,711467e+003;-6,405055e-004
2,713396e+003;-7,095157e-004
2,715324e+003;-8,994192e-004
2,717253e+003;-1,057609e-003
2,719181e+003;-9,912986e-004
2,721110e+003;-1,000885e-003
2,723038e+003;-1,125495e-003
2,724967e+003;-1,003828e-003
2,726895e+003;-8,324565e-004
2,728823e+003;-8,450893e-004
2,730752e+003;-8,075205e-004
2,732681e+003;-7,207296e-004
2,734609e+003;-9,321859e-004
2,736538e+003;-1,072879e-003
2,738466e+003;-9,863398e-004
2,740395e+003;-9,901415e-004
2,742323e+003;-1,430127e-003
2,744251e+003;-1,334541e-003
2,746180e+003;-1,172355e-003
2,748109e+003;-1,313070e-003
2,750037e+003;-1,118026e-003
2,751966e+003;-9,030565e-004
2,753894e+003;-8,429067e-004
2,755823e+003;-7,286024e-004
2,757751e+003;-9,100662e-004
2,759679e+003;-1,119613e-003
2,761608e+003;-1,124272e-003
2,763537e+003;-1,023662e-003
2,765465e+003;-1,220664e-003
2,767394e+003;-1,361891e-003
2,769322e+003;-9,557592e-004
2,771250e+003;-5,818414e-004
2,773179e+003;-5,878968e-004
2,775107e+003;-8,239903e-004
2,777036e+003;-6,543018e-004
2,778965e+003;-6,880132e-004
2,780893e+003;-1,046304e-003
2,782822e+003;-1,101865e-003
2,784750e+003;-1,133460e-003
2,786678e+003;-1,364005e-003
2,788607e+003;-9,058008e-004
2,790535e+003;-6,196282e-004
2,792464e+003;-7,239383e-004
2,794393e+003;-6,498354e-004
2,796321e+003;-5,187017e-004
2,798250e+003;-5,823708e-004
2,800178e+003;-6,284622e-004
2,802106e+003;-5,917682e-004
2,804035e+003;-5,361753e-004
2,805963e+003;-7,536091e-004
2,807892e+003;-7,387905e-004
2,809821e+003;-6,696195e-004
2,811749e+003;-8,686011e-004
2,813677e+003;-8,310675e-004
2,815606e+003;-5,590420e-004
2,817534e+003;-4,546260e-004
2,819463e+003;-5,256184e-004
2,821391e+003;-6,245250e-004
2,823320e+003;-4,502238e-004
2,825249e+003;-5,379292e-004
2,827177e+003;-5,242284e-004
2,829105e+003;-1,516612e-004
2,831034e+003;6,242902e-005
2,832962e+003;-4,317151e-005
2,834891e+003;-3,177438e-005
2,836819e+003;-9,876134e-005
2,838748e+003;1,773364e-004
2,840677e+003;3,531204e-004
2,842605e+003;1,968277e-004
2,844533e+003;2,516265e-004
2,846462e+003;4,432614e-004
2,848390e+003;2,664463e-004
2,850319e+003;2,512287e-004
2,852247e+003;1,709059e-004
2,854176e+003;8,638903e-005
2,856104e+003;-1,005833e-004
2,858033e+003;-8,117764e-006
2,859961e+003;3,508655e-004
2,861890e+003;6,187881e-004
2,863818e+003;4,543396e-004
2,865747e+003;2,312377e-004
2,867675e+003;3,501360e-004
2,869604e+003;5,639761e-004
2,871532e+003;6,347485e-004
2,873461e+003;3,795837e-004
2,875389e+003;3,952701e-004
2,877318e+003;5,341840e-004
2,879246e+003;1,129283e-003
2,881175e+003;1,256835e-003
2,883103e+003;9,787218e-004
2,885032e+003;1,211611e-003
2,886960e+003;1,402673e-003
2,888889e+003;1,383460e-003
2,890817e+003;1,644603e-003
2,892746e+003;1,775134e-003
2,894674e+003;1,499682e-003
2,896603e+003;1,521926e-003
2,898531e+003;1,627076e-003
2,900460e+003;1,689274e-003
2,902388e+003;1,422618e-003
2,904317e+003;1,203737e-003
2,906245e+003;1,483324e-003
2,908174e+003;1,945808e-003
2,910102e+003;1,653051e-003
2,912031e+003;1,382995e-003
2,913959e+003;1,382529e-003
2,915888e+003;2,055855e-003
2,917816e+003;2,790048e-003
2,919745e+003;2,812159e-003
2,921673e+003;2,804021e-003
2,923602e+003;2,992282e-003
2,925530e+003;2,753401e-003
2,927459e+003;2,841740e-003
2,929387e+003;3,150953e-003
2,931316e+003;3,126856e-003
2,933244e+003;3,221113e-003
2,935173e+003;3,675295e-003
2,937101e+003;3,749952e-003
2,939030e+003;3,667943e-003
2,940958e+003;3,417436e-003
2,942887e+003;3,158429e-003
2,944815e+003;2,532815e-003
2,946744e+003;1,459253e-003
2,948672e+003;1,149482e-003
2,950601e+003;1,747189e-003
2,952529e+003;2,677815e-003
2,954458e+003;3,496892e-003
2,956386e+003;4,097774e-003
2,958315e+003;3,943103e-003
2,960243e+003;3,907027e-003
2,962172e+003;4,371164e-003
2,964100e+003;4,596471e-003
2,966029e+003;3,986907e-003
2,967957e+003;3,553579e-003
2,969886e+003;2,982874e-003
2,971814e+003;2,661846e-003
2,973743e+003;2,384198e-003
2,975671e+003;2,019070e-003
2,977600e+003;1,852161e-003
2,979528e+003;2,036547e-003
2,981457e+003;2,210754e-003
2,983385e+003;2,115284e-003
2,985314e+003;1,513114e-003
2,987242e+003;1,216994e-003
2,989171e+003;1,252316e-003
2,991099e+003;1,006153e-003
2,993028e+003;1,187888e-003
2,994956e+003;1,739471e-003
2,996885e+003;1,925573e-003
2,998813e+003;2,138459e-003
3,000742e+003;2,628943e-003
3,002670e+003;2,953082e-003
3,004599e+003;2,772141e-003
3,006527e+003;1,928369e-003
3,008456e+003;1,615469e-003
3,010384e+003;2,028158e-003
3,012313e+003;2,272669e-003
3,014241e+003;2,420015e-003
3,016170e+003;2,150979e-003
3,018098e+003;2,231569e-003
3,020027e+003;2,131899e-003
3,021955e+003;1,503106e-003
3,023884e+003;1,551087e-003
3,025812e+003;1,815459e-003
3,027741e+003;1,240719e-003
3,029669e+003;7,149581e-004
3,031598e+003;6,431438e-004
3,033526e+003;5,070810e-004
3,035455e+003;4,739096e-004
3,037383e+003;3,419785e-004
3,039312e+003;4,120515e-004
3,041240e+003;2,901523e-004
3,043169e+003;6,372143e-005
3,045097e+003;-1,100573e-004
3,047026e+003;2,267291e-004
3,048954e+003;3,213534e-004
3,050883e+003;1,013026e-004
3,052811e+003;1,954913e-006
3,054740e+003;-2,800580e-004
3,056668e+003;-3,669701e-004
3,058597e+003;-4,716388e-004
3,060525e+003;-1,085998e-004
3,062454e+003;1,278993e-005
3,064382e+003;-6,486774e-004
3,066311e+003;-8,516370e-004
3,068239e+003;-8,083804e-004
3,070167e+003;-1,364996e-003
3,072096e+003;-1,305703e-003
3,074025e+003;-1,040619e-003
3,075953e+003;-1,269760e-003
3,077882e+003;-1,388678e-003
3,079810e+003;-8,972039e-004
3,081739e+003;-8,463790e-004
3,083667e+003;-7,028996e-004
3,085595e+003;-3,260490e-004
3,087524e+003;-5,757529e-004
3,089453e+003;-9,521886e-004
3,091381e+003;-1,074036e-003
3,093310e+003;-1,122191e-003
3,095238e+003;-9,975466e-004
3,097167e+003;-4,798801e-004
3,099095e+003;-4,906367e-004
3,101023e+003;-1,058898e-003
3,102952e+003;-1,202491e-003
3,104881e+003;-1,227173e-003
3,106809e+003;-1,563528e-003
3,108738e+003;-1,113003e-003
3,110666e+003;-9,459399e-004
3,112594e+003;-1,681705e-003
3,114523e+003;-1,851026e-003
3,116451e+003;-1,161847e-003
3,118380e+003;-4,159974e-004
3,120309e+003;-3,585279e-004
3,122237e+003;-6,553935e-004
3,124166e+003;-1,204011e-003
3,126094e+003;-1,651834e-003
3,128022e+003;-1,673057e-003
3,129951e+003;-1,446540e-003
3,131879e+003;-1,243759e-003
3,133808e+003;-1,198625e-003
3,135737e+003;-1,157749e-003
3,137665e+003;-8,145319e-004
3,139594e+003;-5,468973e-004
3,141522e+003;-9,000144e-004
3,143450e+003;-1,117498e-003
3,145379e+003;-6,922145e-004
3,147307e+003;-6,326973e-004
3,149236e+003;-7,141799e-004
3,151165e+003;-9,802899e-004
3,153093e+003;-1,089273e-003
3,155021e+003;-9,915960e-004
3,156950e+003;-8,896649e-004
3,158878e+003;-5,622519e-004
3,160807e+003;-7,716354e-004
3,162735e+003;-7,825501e-004
3,164664e+003;-5,643035e-004
3,166593e+003;-7,746452e-004
3,168521e+003;-7,784158e-004
3,170449e+003;-6,329620e-004
3,172378e+003;-8,319935e-004
3,174306e+003;-1,006406e-003
3,176235e+003;-5,054637e-004
3,178163e+003;-8,289510e-004
3,180092e+003;-1,622653e-003
3,182021e+003;-1,625690e-003
3,183949e+003;-1,497129e-003
3,185877e+003;-1,248120e-003
3,187806e+003;-1,318223e-003
3,189734e+003;-1,900875e-003
3,191663e+003;-2,078124e-003
3,193591e+003;-1,934391e-003
3,195520e+003;-2,003460e-003
3,197448e+003;-2,022721e-003
3,199377e+003;-1,528728e-003
3,201305e+003;-1,114457e-003
3,203234e+003;-1,207910e-003
3,205162e+003;-1,585350e-003
3,207091e+003;-1,125165e-003
3,209019e+003;-8,463790e-004
3,210948e+003;-6,261462e-004
3,212876e+003;-1,042999e-003
3,214805e+003;-1,412590e-003
3,216733e+003;-1,208967e-003
3,218662e+003;-7,566521e-004
3,220590e+003;-5,213493e-004
3,222519e+003;-8,619875e-004
3,224447e+003;-1,448488e-003
3,226376e+003;-1,571649e-003
3,228304e+003;-1,840204e-003
3,230233e+003;-2,142191e-003
3,232161e+003;-1,261930e-003
3,234090e+003;-9,068259e-004
3,236018e+003;-1,251193e-003
3,237947e+003;-9,479567e-004
3,239875e+003;-1,015199e-003
3,241804e+003;-1,185342e-003
3,243732e+003;-9,125130e-004
3,245661e+003;-9,788353e-004
3,247589e+003;-4,990431e-004
3,249518e+003;-3,465763e-004
3,251446e+003;-6,535408e-004
3,253375e+003;-7,098465e-004
3,255303e+003;-1,549859e-003
3,257232e+003;-1,885304e-003
3,259160e+003;-1,657742e-003
3,261089e+003;-1,273262e-003
3,263017e+003;-1,962330e-003
3,264946e+003;-1,850003e-003
3,266874e+003;-1,166242e-003
3,268803e+003;-1,279473e-003
3,270731e+003;-1,591391e-003
3,272660e+003;-1,198162e-003
3,274588e+003;-9,179356e-004
3,276517e+003;-7,145769e-004
3,278445e+003;-4,422136e-004
3,280374e+003;-5,881946e-004
3,282302e+003;-8,311667e-004
3,284231e+003;-6,157570e-004
3,286159e+003;-4,099065e-004
3,288088e+003;-1,023926e-003
3,290016e+003;-1,472033e-003
3,291945e+003;-5,406428e-004
3,293873e+003;-4,461856e-004
3,295802e+003;-1,208472e-003
3,297730e+003;-1,767116e-003
3,299659e+003;-1,540218e-003
3,301587e+003;-1,332361e-003
3,303516e+003;-1,674807e-003
3,305444e+003;-1,361396e-003
3,307373e+003;-1,352147e-003
3,309301e+003;-1,275707e-003
3,311230e+003;-1,473420e-003
3,313158e+003;-1,617999e-003
3,315087e+003;-1,525063e-003
3,317015e+003;-1,177246e-003
3,318944e+003;-1,284065e-003
3,320872e+003;-1,403607e-003
3,322801e+003;-8,287526e-004
3,324729e+003;-6,634660e-004
3,326658e+003;-9,622061e-004
3,328586e+003;-1,333253e-003
3,330515e+003;-1,685567e-003
3,332443e+003;-1,454201e-003
3,334372e+003;-1,102526e-003
3,336300e+003;-4,770668e-004
3,338229e+003;-4,634304e-004
3,340157e+003;-9,003782e-004
3,342086e+003;-1,407966e-003
3,344014e+003;-1,366813e-003
3,345943e+003;-1,234508e-003
3,347871e+003;-1,739924e-003
3,349800e+003;-2,122903e-003
3,351728e+003;-1,300286e-003
3,353657e+003;-6,558236e-004
3,355585e+003;-8,985926e-004
3,357514e+003;-1,226248e-003
3,359442e+003;-1,355021e-003
3,361371e+003;-8,573249e-004
3,363299e+003;-6,653848e-004
3,365228e+003;-3,833573e-004
3,367156e+003;-9,923565e-004
3,369085e+003;-1,643548e-003
3,371013e+003;-9,547013e-004
3,372942e+003;-1,395382e-004
3,374870e+003;1,572826e-004
3,376799e+003;-6,286938e-004
3,378727e+003;-1,429862e-003
3,380656e+003;-1,023298e-003
3,382584e+003;-1,083026e-003
3,384513e+003;-1,644902e-003
3,386441e+003;-1,007927e-003
3,388370e+003;-1,656386e-004
3,390298e+003;-5,783339e-004
3,392227e+003;-6,045734e-004
3,394155e+003;-9,980424e-004
3,396083e+003;-1,822057e-003
3,398012e+003;-1,292588e-003
3,399941e+003;-4,825610e-004
3,401869e+003;-1,739189e-004
3,403798e+003;-1,280773e-004
3,405726e+003;-3,933879e-004
3,407655e+003;-1,010042e-003
3,409583e+003;-1,048816e-003
3,411511e+003;-1,201103e-003
3,413440e+003;-1,312244e-003
3,415369e+003;-1,762661e-003
3,417297e+003;-1,813214e-003
3,419226e+003;-1,566334e-003
3,421154e+003;-1,044784e-003
3,423083e+003;-2,002491e-004
3,425011e+003;-9,044651e-005
3,426939e+003;-1,259905e-004
3,428868e+003;-3,489600e-004
3,430797e+003;-4,581015e-004
3,432725e+003;-2,557873e-005
3,434654e+003;-3,965328e-004
3,436582e+003;-6,948941e-004
3,438510e+003;-1,143473e-003
3,440439e+003;-1,832648e-003
3,442367e+003;-9,314255e-004
3,444296e+003;-2,337971e-004
3,446225e+003;-1,402418e-003
3,448153e+003;-1,543025e-003
3,450082e+003;-1,902492e-003
3,452010e+003;-2,059987e-003
3,453938e+003;-8,531251e-004
3,455867e+003;-1,978057e-005
3,457795e+003;-2,075020e-004
3,459724e+003;-1,325457e-003
3,461653e+003;-1,020422e-003
3,463581e+003;-8,971771e-005
3,465510e+003;-2,317108e-004
3,467438e+003;-9,905712e-004
3,469366e+003;-1,449248e-003
3,471295e+003;-1,736954e-003
3,473223e+003;-1,888240e-003
3,475152e+003;-1,411698e-003
3,477081e+003;-7,139798e-005
3,479009e+003;-4,065356e-005
3,480938e+003;4,399778e-004
3,482866e+003;-1,288492e-003
3,484794e+003;-3,846642e-003
3,486723e+003;-2,465517e-003
3,488651e+003;-6,387188e-004
3,490580e+003;-7,069355e-004
3,492509e+003;-6,143674e-004
3,494437e+003;-7,527402e-005
3,496365e+003;-8,240896e-004
3,498294e+003;-1,517106e-003
3,500222e+003;-3,298566e-004
3,502151e+003;9,601253e-004
3,504079e+003;2,590198e-004
3,506008e+003;-2,769917e-005
3,507937e+003;1,529737e-004
3,509865e+003;-6,217457e-004
3,511793e+003;-4,273844e-004
3,513722e+003;1,086270e-004
3,515650e+003;-6,706450e-004
3,517579e+003;-1,540185e-003
3,519507e+003;-1,330611e-003
3,521436e+003;-4,327468e-004
3,523365e+003;-4,902726e-004
3,525293e+003;-3,421729e-004
3,527221e+003;2,087615e-004
3,529150e+003;6,572800e-004
3,531078e+003;1,821097e-004
3,533007e+003;-3,532970e-004
3,534935e+003;-4,606832e-004
3,536864e+003;-5,460700e-004
3,538792e+003;6,704876e-004
3,540721e+003;9,992453e-004
3,542649e+003;6,207126e-004
3,544578e+003;-6,917836e-005
3,546506e+003;-1,196246e-003
3,548435e+003;-3,735250e-004
3,550363e+003;2,797745e-004
3,552292e+003;1,534133e-005
3,554220e+003;-1,180914e-003
3,556149e+003;-1,569074e-003
3,558077e+003;-6,936701e-004
3,560006e+003;-5,703591e-004
3,561934e+003;-1,323244e-003
3,563863e+003;-1,589246e-003
3,565791e+003;-1,915589e-003
3,567720e+003;-1,970115e-003
3,569648e+003;-1,571484e-003
3,571577e+003;-1,297676e-003
3,573505e+003;-9,375752e-004
3,575434e+003;-7,166940e-004
3,577362e+003;-7,823847e-004
3,579291e+003;-5,474930e-004
3,581219e+003;-8,441964e-004
3,583148e+003;-5,979558e-004
3,585076e+003;5,036403e-006
3,587005e+003;1,033794e-005
3,588933e+003;-1,068748e-003
3,590862e+003;-1,147406e-003
3,592790e+003;-1,307553e-003
3,594719e+003;-9,626028e-004
3,596647e+003;-3,227712e-004
3,598576e+003;-2,304192e-004
3,600504e+003;9,318291e-005
3,602433e+003;4,494638e-004
3,604361e+003;2,478139e-004
3,606290e+003;-7,835754e-004
3,608218e+003;-1,478407e-003
3,610147e+003;-8,581516e-004
3,612075e+003;6,708194e-004
3,614004e+003;8,997585e-004
3,615932e+003;-1,007133e-003
3,617861e+003;-1,905593e-003
3,619789e+003;-7,927369e-004
3,621718e+003;-9,968888e-005
3,623646e+003;9,000905e-004
3,625575e+003;1,235037e-003
3,627503e+003;8,005922e-005
3,629432e+003;-2,143708e-003
3,631360e+003;-1,627506e-003
3,633289e+003;-6,729278e-004
3,635217e+003;3,023539e-004
3,637146e+003;-1,064797e-004
3,639074e+003;-1,288723e-003
3,641003e+003;-1,771373e-003
3,642931e+003;-1,547086e-003
3,644860e+003;-1,776554e-003
3,646788e+003;-3,119210e-003
3,648717e+003;-3,955367e-003
3,650645e+003;-2,187392e-003
3,652574e+003;-1,136500e-003
3,654502e+003;-4,796485e-004
3,656431e+003;-1,214882e-003
3,658359e+003;-1,459419e-003
3,660288e+003;-1,608161e-003
3,662216e+003;-1,630840e-003
3,664145e+003;-1,181839e-003
3,666073e+003;-7,714039e-004
3,668002e+003;-3,454506e-004
3,669930e+003;1,908609e-004
3,671859e+003;-1,114887e-003
3,673787e+003;-3,052588e-003
3,675716e+003;-4,074373e-003
3,677644e+003;-2,095568e-003
3,679573e+003;-1,892397e-003
3,681501e+003;-1,280233e-003
3,683430e+003;-1,255983e-003
3,685358e+003;-1,533780e-003
3,687287e+003;-1,966123e-003
3,689215e+003;-2,940707e-003
3,691144e+003;-2,144335e-003
3,693072e+003;-1,690980e-003
3,695001e+003;-1,687910e-003
3,696929e+003;-1,206720e-003
3,698858e+003;-5,017570e-004
3,700786e+003;-7,296940e-004
3,702715e+003;-1,518757e-003
3,704643e+003;-1,288954e-003
3,706572e+003;-9,808519e-004
3,708500e+003;-6,620103e-004
3,710429e+003;-4,700501e-004
3,712357e+003;-7,942252e-004
3,714286e+003;-1,213428e-003
3,716214e+003;-1,403970e-003
3,718143e+003;-6,973752e-004
3,720071e+003;5,571416e-004
3,722000e+003;6,793813e-004
3,723928e+003;-5,121821e-004
3,725857e+003;-1,365095e-003
3,727785e+003;-1,787377e-003
3,729714e+003;-2,088775e-003
3,731642e+003;-1,740914e-003
3,733571e+003;1,097538e-004
3,735499e+003;6,392282e-004
3,737427e+003;-6,633006e-004
3,739356e+003;-1,200178e-003
3,741285e+003;-1,153387e-003
3,743213e+003;-2,731017e-003
3,745142e+003;-3,577780e-003
3,747070e+003;-2,447560e-003
3,748999e+003;-3,599699e-003
3,750927e+003;-5,498365e-003
3,752855e+003;-3,256500e-003
3,754784e+003;-1,561283e-003
3,756713e+003;-1,522488e-003
3,758641e+003;-1,925584e-003
3,760570e+003;-1,722763e-003
3,762498e+003;-8,241888e-004
3,764427e+003;6,348946e-005
3,766355e+003;4,540079e-004
3,768283e+003;-1,124424e-004
3,770212e+003;-2,383176e-003
3,772141e+003;-2,257014e-003
3,774069e+003;-1,480784e-003
3,775998e+003;-1,205068e-003
3,777926e+003;-1,079721e-003
3,779854e+003;1,191995e-004
3,781783e+003;5,056878e-004
3,783711e+003;-6,522505e-004
3,785640e+003;-1,000621e-003
3,787569e+003;-8,538195e-004
3,789497e+003;-7,201673e-004
3,791426e+003;-1,098296e-003
3,793354e+003;-1,724611e-003
3,795282e+003;-1,199088e-003
3,797211e+003;-7,292309e-004
3,799139e+003;-1,450965e-003
3,801068e+003;-2,400245e-003
3,802997e+003;-1,043858e-003
3,804925e+003;-7,214574e-004
3,806854e+003;-1,237349e-003
3,808782e+003;-7,002863e-004
3,810710e+003;-3,269099e-004
3,812639e+003;-7,589344e-004
3,814567e+003;-3,392263e-004
3,816496e+003;-5,562293e-004
3,818425e+003;-1,330049e-003
3,820353e+003;-1,312707e-003
3,822281e+003;-1,068450e-003
3,824210e+003;-1,534440e-003
3,826138e+003;-1,005811e-003
3,828067e+003;-1,078762e-003
3,829995e+003;-1,031000e-003
3,831924e+003;-1,040057e-003
3,833853e+003;-1,519120e-003
3,835781e+003;-1,356012e-003
3,837709e+003;-1,937591e-003
3,839638e+003;-2,284306e-003
3,841566e+003;-1,097469e-003
3,843495e+003;-6,765007e-004
3,845423e+003;-8,252801e-004
3,847352e+003;-2,826739e-004
3,849281e+003;4,633947e-004
3,851209e+003;7,636485e-004
3,853137e+003;9,075944e-004
3,855066e+003;-1,156493e-003
3,856994e+003;-9,111573e-004
3,858923e+003;-3,429013e-004
3,860851e+003;-9,078178e-004
3,862780e+003;-1,810310e-003
3,864708e+003;-1,072978e-003
3,866637e+003;-8,923432e-004
3,868565e+003;-1,849145e-003
3,870494e+003;-1,433528e-003
3,872422e+003;-5,929594e-004
3,874351e+003;-1,097469e-003
3,876279e+003;-1,272436e-003
3,878208e+003;-1,003530e-003
3,880136e+003;-4,122568e-004
3,882065e+003;-3,515424e-004
3,883993e+003;-5,269091e-004
3,885922e+003;-8,624505e-004
3,887850e+003;-1,317662e-003
3,889779e+003;-1,566631e-003
3,891707e+003;-1,093536e-003
3,893636e+003;-1,308544e-003
3,895564e+003;-1,604563e-003
3,897493e+003;-1,344418e-003
3,899421e+003;-1,364798e-003
3,901350e+003;-1,075689e-003
3,903278e+003;-1,734148e-003
3,905207e+003;-2,022787e-003
3,907135e+003;-1,635758e-003
3,909064e+003;-1,824762e-003
3,910992e+003;-1,391419e-003
3,912921e+003;-1,592415e-003
3,914849e+003;-1,447398e-003
3,916778e+003;-1,455720e-003
3,918706e+003;-1,677414e-003
3,920635e+003;-1,479860e-003
3,922563e+003;-1,084315e-003
3,924492e+003;-1,455192e-003
3,926420e+003;-1,669526e-003
3,928349e+003;-1,241744e-003
3,930277e+003;-1,033082e-003
3,932206e+003;-1,183822e-003
3,934134e+003;-1,363807e-003
3,936063e+003;-8,859945e-004
3,937991e+003;-8,663525e-004
3,939920e+003;-1,212404e-003
3,941848e+003;-1,970016e-003
3,943777e+003;-2,409142e-003
3,945705e+003;-1,883919e-003
3,947634e+003;-5,473606e-004
3,949562e+003;4,141775e-006
3,951491e+003;-7,828147e-004
3,953419e+003;-1,293348e-003
3,955348e+003;-1,297378e-003
3,957276e+003;-7,952505e-004
3,959205e+003;-5,532841e-004
3,961133e+003;-6,116542e-004
3,963062e+003;-6,574116e-004
3,964990e+003;-1,185606e-003
3,966919e+003;-1,751738e-003
3,968847e+003;-1,630741e-003
3,970776e+003;-1,652461e-003
3,972704e+003;-1,632920e-003
3,974633e+003;-1,214056e-003
3,976561e+003;-1,550553e-003
3,978490e+003;-1,394425e-003
3,980418e+003;-1,635791e-003
3,982347e+003;-1,807836e-003
3,984275e+003;-1,992147e-003
3,986204e+003;-2,284273e-003
3,988132e+003;-1,746524e-003
3,990061e+003;-1,058534e-003
3,991989e+003;-9,546021e-004
3,993918e+003;-1,173413e-003
3,995846e+003;-1,497493e-003
3,997775e+003;-1,491846e-003
3,999703e+003;-1,424347e-003
4,001632e+003;-9,866704e-004
4,003560e+003;-1,275641e-003
4,005489e+003;-1,775399e-003
4,007417e+003;-1,741937e-003
4,009346e+003;-1,487950e-003
4,011274e+003;-1,570857e-003
4,013203e+003;-1,562207e-003
4,015131e+003;-4,776295e-004
4,017060e+003;-2,653888e-004
4,018988e+003;-9,746940e-005
4,020917e+003;-8,132090e-004
4,022845e+003;-2,044718e-003
4,024774e+003;-1,961770e-003
4,026702e+003;-1,197336e-003
4,028631e+003;-9,192250e-004
4,030559e+003;-9,295409e-004
4,032488e+003;-6,356419e-004
4,034416e+003;-5,638403e-004
4,036345e+003;-6,875501e-004
4,038273e+003;-1,190529e-003
4,040202e+003;-1,738736e-003
4,042130e+003;-1,127478e-003
4,044059e+003;-7,818886e-004
4,045987e+003;-1,575677e-003
4,047916e+003;-1,819087e-003
4,049844e+003;-8,886398e-004
4,051773e+003;-8,420799e-004
4,053701e+003;-1,453904e-003
4,055630e+003;-1,354063e-003
4,057558e+003;-9,491800e-004
4,059487e+003;-1,022934e-003
4,061415e+003;-1,295727e-003
4,063344e+003;-1,660152e-003
4,065272e+003;-1,384616e-003
4,067201e+003;-9,498082e-004
4,069129e+003;-5,224413e-004
4,071058e+003;-8,437996e-004
4,072986e+003;-9,235233e-004
4,074915e+003;-1,233979e-003
4,076843e+003;-1,478407e-003
4,078771e+003;-6,821246e-004
4,080700e+003;-3,326708e-004
4,082629e+003;-4,395656e-004
4,084557e+003;-3,517079e-004
4,086486e+003;-1,065674e-003
4,088414e+003;-1,598819e-003
4,090343e+003;-1,550685e-003
4,092271e+003;-1,254959e-003
4,094199e+003;-1,760186e-003
4,096128e+003;-1,956822e-003
4,098057e+003;-1,325160e-003
4,099985e+003;-4,968919e-004
4,101914e+003;-7,664756e-004
4,103842e+003;-5,816760e-004
4,105771e+003;-5,883600e-004
4,107699e+003;-9,387324e-004
4,109627e+003;-1,149983e-003
4,111556e+003;-1,165217e-003
4,113484e+003;-1,138417e-003
4,115413e+003;-1,037214e-003
4,117341e+003;-8,519677e-004
4,119270e+003;-1,225422e-003
4,121199e+003;-1,702531e-003
4,123127e+003;-1,985221e-003
4,125056e+003;-1,663287e-003
4,126984e+003;-1,309965e-003
4,128913e+003;-8,420799e-004
4,130841e+003;1,460794e-004
4,132770e+003;-8,262843e-005
4,134698e+003;-5,927940e-004
4,136626e+003;-1,133169e-005
4,138555e+003;-5,061256e-004
4,140483e+003;-1,055593e-003
4,142412e+003;-6,249551e-004
4,144340e+003;-5,145649e-004
4,146269e+003;-3,773652e-004
4,148197e+003;-3,160500e-004
4,150126e+003;-4,625367e-004
4,152055e+003;-2,136620e-004
4,153983e+003;-8,908829e-005
4,155912e+003;-1,535823e-004
4,157840e+003;-4,076224e-004
4,159769e+003;-1,018670e-003
4,161697e+003;-1,505748e-003
4,163625e+003;-8,248171e-004
4,165554e+003;-4,067948e-004
4,167482e+003;-6,857306e-004
4,169411e+003;-7,529806e-004
4,171339e+003;-1,365888e-003
4,173268e+003;-1,699297e-003
4,175196e+003;-1,623677e-003
4,177125e+003;-1,753817e-003
4,179053e+003;-1,405753e-003
4,180982e+003;-4,240743e-004
4,182911e+003;-8,384092e-004
4,184839e+003;-1,197964e-003
4,186768e+003;-6,389174e-004
4,188696e+003;-5,584795e-004
4,190625e+003;-1,057708e-003
4,192553e+003;-1,847133e-003
4,194481e+003;-1,695006e-003
4,196410e+003;-9,866373e-004
4,198338e+003;-7,575451e-004
4,200267e+003;-1,086001e-003
4,202195e+003;-9,944391e-004
4,204124e+003;-6,574116e-004
4,206052e+003;-1,018703e-003
4,207981e+003;-1,424843e-003
4,209909e+003;-1,658864e-003
4,211838e+003;-1,275641e-003
4,213767e+003;-7,145439e-004
4,215695e+003;-2,337971e-004
4,217624e+003;-4,943104e-004
4,219552e+003;-3,240625e-004
4,221480e+003;-8,679067e-004
4,223409e+003;-1,358324e-003
4,225337e+003;-7,868828e-004
4,227266e+003;-1,167762e-003
4,229194e+003;-1,581818e-003
4,231123e+003;-9,538417e-004
4,233051e+003;-2,485005e-004
4,234980e+003;-5,947153e-005
4,236908e+003;-8,531251e-004
4,238837e+003;-1,340619e-003
4,240765e+003;-1,141689e-003
4,242694e+003;-7,391874e-004
4,244623e+003;-4,766697e-004
4,246551e+003;-1,003894e-003
4,248479e+003;-9,924887e-004
4,250408e+003;-3,451195e-004
4,252336e+003;-8,945256e-004
4,254265e+003;-5,758852e-004
4,256193e+003;4,190827e-004
4,258122e+003;-3,456493e-004
4,260050e+003;-1,655267e-003
4,261979e+003;-1,434552e-003
4,263907e+003;-9,390960e-004
4,265836e+003;-6,870538e-004
4,267764e+003;-1,323442e-003
4,269693e+003;-2,517141e-003
4,271621e+003;-1,920669e-003
4,273550e+003;-7,067370e-004
4,275479e+003;-8,555722e-004
4,277407e+003;-1,275376e-003
4,279335e+003;-1,622818e-003
4,281264e+003;-1,557090e-003
4,283192e+003;-1,251490e-003
4,285121e+003;-7,263861e-004
4,287049e+003;-4,028912e-005
4,288978e+003;-4,924239e-004
4,290906e+003;-9,778435e-004
4,292835e+003;-1,105732e-003
4,294763e+003;-9,232588e-004
4,296692e+003;-1,393236e-003
4,298620e+003;-1,023529e-003
4,300549e+003;-7,397498e-004
4,302477e+003;-1,074862e-003
4,304406e+003;-1,346532e-003
4,306334e+003;-1,163037e-003
4,308263e+003;-2,440299e-004
4,310191e+003;-2,368438e-004
4,312120e+003;-6,643923e-004
4,314048e+003;-8,349368e-004
4,315977e+003;-1,498219e-003
4,317905e+003;-1,227702e-003
4,319834e+003;-7,017750e-004
4,321762e+003;-4,375133e-004
4,323691e+003;-3,604834e-005
4,325619e+003;-2,056474e-004
4,327548e+003;-5,960035e-004
4,329476e+003;-9,040153e-004
4,331405e+003;-1,389504e-003
4,333333e+003;-1,387852e-003
4,335262e+003;-2,799587e-004
4,337190e+003;-7,910832e-004
4,339119e+003;-6,675352e-004
4,341047e+003;-9,481551e-004
4,342976e+003;-1,192314e-003
4,344904e+003;-9,106945e-004
4,346833e+003;-9,164807e-004
4,348761e+003;-1,196411e-003
4,350690e+003;-6,392151e-004
4,352618e+003;1,300043e-004
4,354547e+003;-3,151891e-004
4,356475e+003;-1,371074e-003
4,358404e+003;-1,734610e-003
4,360332e+003;-9,251765e-004
4,362261e+003;-2,262465e-004
4,364189e+003;-3,893075e-005
4,366118e+003;-9,558584e-004
4,368046e+003;-7,124267e-004
4,369975e+003;3,182033e-004
4,371903e+003;9,111956e-006
4,373832e+003;-6,688916e-004
4,375760e+003;-2,926075e-004
4,377688e+003;4,062476e-004
4,379617e+003;-2,139600e-004
4,381546e+003;-8,791166e-004
4,383474e+003;-1,048155e-003
4,385403e+003;-8,782899e-004
4,387331e+003;-8,764051e-004
4,389260e+003;-9,160178e-004
4,391188e+003;-8,704860e-004
4,393117e+003;-5,044708e-004
4,395045e+003;-1,058700e-003
4,396974e+003;-1,580101e-003
4,398902e+003;-1,452352e-003
4,400831e+003;-1,110755e-003
4,402759e+003;-2,150863e-003
4,404688e+003;-1,750022e-003
4,406616e+003;-4,912986e-004
4,408544e+003;-7,911825e-004
4,410473e+003;-1,573597e-003
4,412402e+003;-2,098107e-003
4,414330e+003;-1,436269e-003
4,416259e+003;-2,003153e-004
4,418187e+003;-5,839592e-004
4,420116e+003;-1,444195e-003
4,422044e+003;-1,731739e-003
4,423973e+003;-1,515257e-003
4,425901e+003;-4,408234e-004
4,427830e+003;-7,744468e-004
4,429758e+003;-1,202491e-003
4,431687e+003;-1,531601e-003
4,433615e+003;-2,530021e-003
4,435543e+003;-2,434216e-003
4,437472e+003;-9,537425e-004
4,439400e+003;-7,097804e-004
4,441329e+003;-1,445813e-003
4,443258e+003;-1,189142e-003
4,445186e+003;-2,118074e-004
4,447115e+003;-7,466298e-004
4,449043e+003;-1,297577e-003
4,450972e+003;-8,187320e-004
4,452900e+003;-4,629008e-004
4,454829e+003;-1,346400e-003
4,456757e+003;-2,316046e-003
4,458686e+003;-2,289975e-003
4,460614e+003;-1,438944e-003
4,462542e+003;-6,190657e-004
4,464471e+003;-1,024587e-003
4,466399e+003;-1,591854e-003
4,468328e+003;-1,294537e-003
4,470256e+003;-1,048155e-003
4,472185e+003;-6,595290e-004
4,474113e+003;-1,125033e-003
4,476042e+003;-1,630345e-003
4,477971e+003;-2,217095e-003
4,479899e+003;-2,425913e-003
4,481828e+003;-2,273198e-003
4,483756e+003;-1,278548e-003
4,485685e+003;-1,322881e-003
4,487613e+003;-1,284990e-003
4,489542e+003;-2,105158e-004
4,491470e+003;2,984083e-004
4,493398e+003;-1,716998e-004
4,495327e+003;-1,156394e-003
4,497255e+003;-1,380619e-003
4,499184e+003;-1,641481e-004
