5,245513e+002;1,326327e-001
5,264797e+002;2,204552e-001
5,284083e+002;1,539889e-001
5,303367e+002;3,160481e-002
5,322653e+002;-1,860066e-003
5,341937e+002;3,701039e-002
5,361223e+002;5,761245e-002
5,380507e+002;5,099482e-002
5,399792e+002;6,562196e-002
5,419077e+002;5,833971e-002
5,438362e+002;1,937935e-002
5,457647e+002;4,109102e-002
5,476932e+002;5,587593e-002
5,496217e+002;3,037557e-002
5,515502e+002;1,764898e-002
5,534787e+002;3,112831e-002
5,554072e+002;2,293270e-002
5,573357e+002;1,417149e-002
5,592642e+002;1,456220e-002
5,611927e+002;3,583123e-002
5,631212e+002;4,671402e-002
5,650497e+002;3,814129e-002
5,669782e+002;2,521842e-002
5,689067e+002;2,222066e-002
5,708352e+002;1,938749e-002
5,727637e+002;1,569273e-002
5,746922e+002;2,323866e-002
5,766207e+002;3,621332e-002
5,785492e+002;2,266776e-002
5,804777e+002;2,390371e-002
5,824062e+002;2,268605e-002
5,843347e+002;1,141954e-002
5,862632e+002;1,510133e-002
5,881917e+002;2,946634e-002
5,901202e+002;3,973031e-002
5,920486e+002;3,576884e-002
5,939772e+002;2,497644e-002
5,959056e+002;2,438927e-002
5,978342e+002;2,718591e-002
5,997626e+002;2,493787e-002
6,016912e+002;2,459831e-002
6,036196e+002;2,127912e-002
6,055482e+002;2,111303e-002
6,074766e+002;2,236513e-002
6,094052e+002;2,039963e-002
6,113336e+002;2,096724e-002
6,132621e+002;2,704811e-002
6,151906e+002;2,952933e-002
6,171191e+002;2,645063e-002
6,190476e+002;2,571077e-002
6,209761e+002;2,929007e-002
6,229046e+002;2,718591e-002
6,248331e+002;2,471131e-002
6,267616e+002;2,940032e-002
6,286901e+002;3,093777e-002
6,306186e+002;2,510782e-002
6,325471e+002;2,049719e-002
6,344756e+002;2,437742e-002
6,364041e+002;2,775900e-002
6,383326e+002;2,625872e-002
6,402611e+002;2,441468e-002
6,421896e+002;2,576287e-002
6,441181e+002;2,243784e-002
6,460466e+002;2,037640e-002
6,479751e+002;2,009805e-002
6,499036e+002;2,055009e-002
6,518321e+002;2,205407e-002
6,537606e+002;2,378119e-002
6,556891e+002;2,441002e-002
6,576176e+002;2,408106e-002
6,595461e+002;2,440781e-002
6,614745e+002;2,550730e-002
6,634031e+002;2,641447e-002
6,653315e+002;2,567041e-002
6,672601e+002;2,468149e-002
6,691885e+002;2,597662e-002
6,711171e+002;2,629297e-002
6,730455e+002;2,662797e-002
6,749741e+002;2,656210e-002
6,769025e+002;2,625259e-002
6,788311e+002;2,747924e-002
6,807595e+002;2,826930e-002
6,826880e+002;2,773685e-002
6,846165e+002;2,715529e-002
6,865450e+002;2,702526e-002
6,884735e+002;2,788010e-002
6,904020e+002;2,839503e-002
6,923305e+002;2,798614e-002
6,942590e+002;2,817882e-002
6,961875e+002;2,885887e-002
6,981160e+002;2,889457e-002
7,000445e+002;2,883635e-002
7,019730e+002;2,936685e-002
7,039015e+002;3,023626e-002
7,058300e+002;3,082759e-002
7,077585e+002;3,044028e-002
7,096870e+002;2,841983e-002
7,116155e+002;2,469801e-002
7,135440e+002;1,944404e-002
7,154725e+002;1,761927e-002
7,174010e+002;1,970359e-002
7,193295e+002;1,992381e-002
7,212580e+002;1,978483e-002
7,231865e+002;2,133776e-002
7,251150e+002;2,358689e-002
7,270435e+002;2,487629e-002
7,289720e+002;2,491776e-002
7,309005e+002;2,548232e-002
7,328290e+002;2,637686e-002
7,347574e+002;2,651871e-002
7,366860e+002;2,627671e-002
7,386144e+002;2,559649e-002
7,405430e+002;2,535086e-002
7,424714e+002;2,487780e-002
7,444000e+002;2,245539e-002
7,463284e+002;1,975123e-002
7,482570e+002;1,912921e-002
7,501854e+002;2,126385e-002
7,521140e+002;2,211110e-002
7,540424e+002;2,063636e-002
7,559709e+002;1,938957e-002
7,578994e+002;1,935164e-002
7,598279e+002;1,881641e-002
7,617564e+002;1,877036e-002
7,636849e+002;1,918185e-002
7,656134e+002;2,006339e-002
7,675419e+002;2,164114e-002
7,694704e+002;2,211124e-002
7,713989e+002;2,056368e-002
7,733274e+002;1,788570e-002
7,752559e+002;1,519376e-002
7,771844e+002;1,271932e-002
7,791129e+002;1,106903e-002
7,810414e+002;1,024167e-002
7,829699e+002;9,825037e-003
7,848984e+002;1,032958e-002
7,868269e+002;1,148795e-002
7,887554e+002;1,209738e-002
7,906839e+002;1,276569e-002
7,926124e+002;1,290292e-002
7,945409e+002;1,286429e-002
7,964694e+002;1,341396e-002
7,983979e+002;1,397945e-002
8,003264e+002;1,447679e-002
8,022549e+002;1,439660e-002
8,041833e+002;1,454161e-002
8,061119e+002;1,470143e-002
8,080403e+002;1,445887e-002
8,099689e+002;1,465650e-002
8,118973e+002;1,565862e-002
8,138259e+002;1,683955e-002
8,157543e+002;1,655654e-002
8,176829e+002;1,552066e-002
8,196113e+002;1,484144e-002
8,215399e+002;1,438889e-002
8,234683e+002;1,436344e-002
8,253969e+002;1,559607e-002
8,273253e+002;1,782407e-002
8,292538e+002;1,918174e-002
8,311823e+002;1,832625e-002
8,331108e+002;1,591880e-002
8,350393e+002;1,420775e-002
8,369678e+002;1,384154e-002
8,388963e+002;1,597871e-002
8,408248e+002;1,858378e-002
8,427533e+002;1,962260e-002
8,446818e+002;1,939061e-002
8,466103e+002;1,911474e-002
8,485388e+002;1,827527e-002
8,504673e+002;1,657971e-002
8,523958e+002;1,533873e-002
8,543243e+002;1,490490e-002
8,562528e+002;1,498892e-002
8,581813e+002;1,451190e-002
8,601098e+002;1,398017e-002
8,620383e+002;1,375678e-002
8,639668e+002;1,358807e-002
8,658953e+002;1,325717e-002
8,678238e+002;1,352661e-002
8,697523e+002;1,598700e-002
8,716808e+002;1,742835e-002
8,736093e+002;1,537924e-002
8,755378e+002;1,432372e-002
8,774662e+002;1,387168e-002
8,793948e+002;1,436711e-002
8,813232e+002;1,496214e-002
8,832518e+002;1,479124e-002
8,851802e+002;1,473132e-002
8,871088e+002;1,530241e-002
8,890372e+002;1,533210e-002
8,909658e+002;1,597167e-002
8,928942e+002;1,669477e-002
8,948228e+002;1,697273e-002
8,967512e+002;1,674077e-002
8,986797e+002;1,641833e-002
9,006082e+002;1,639833e-002
9,025367e+002;1,602994e-002
9,044652e+002;1,583230e-002
9,063937e+002;1,587677e-002
9,083222e+002;1,602970e-002
9,102507e+002;1,701945e-002
9,121792e+002;1,754933e-002
9,141077e+002;1,727638e-002
9,160362e+002;1,729434e-002
9,179647e+002;1,748858e-002
9,198932e+002;1,774168e-002
9,218217e+002;1,757603e-002
9,237502e+002;1,731779e-002
9,256787e+002;1,764711e-002
9,276072e+002;1,783488e-002
9,295357e+002;1,812110e-002
9,314642e+002;1,838176e-002
9,333927e+002;1,832846e-002
9,353212e+002;1,818429e-002
9,372497e+002;1,845809e-002
9,391782e+002;1,848229e-002
9,411067e+002;1,834885e-002
9,430352e+002;1,898425e-002
9,449637e+002;1,924017e-002
9,468922e+002;1,906391e-002
9,488207e+002;1,903576e-002
9,507491e+002;1,929468e-002
9,526777e+002;2,039900e-002
9,546061e+002;2,094582e-002
9,565347e+002;2,059807e-002
9,584631e+002;2,084339e-002
9,603917e+002;2,130140e-002
9,623201e+002;2,143710e-002
9,642487e+002;2,246750e-002
9,661771e+002;2,403438e-002
9,681057e+002;2,580886e-002
9,700341e+002;2,712379e-002
9,719626e+002;2,662509e-002
9,738911e+002;2,528012e-002
9,758196e+002;2,324992e-002
9,777481e+002;2,125480e-002
9,796766e+002;1,932676e-002
9,816051e+002;1,766816e-002
9,835336e+002;1,705132e-002
9,854621e+002;1,711839e-002
9,873906e+002;1,696060e-002
9,893191e+002;1,664925e-002
9,912476e+002;1,656828e-002
9,931761e+002;1,639975e-002
9,951046e+002;1,605617e-002
9,970331e+002;1,555177e-002
9,989616e+002;1,553827e-002
1,000890e+003;1,541411e-002
1,002819e+003;1,499482e-002
1,004747e+003;1,404598e-002
1,006676e+003;1,294320e-002
1,008604e+003;1,269425e-002
1,010533e+003;1,237721e-002
1,012461e+003;1,224281e-002
1,014390e+003;1,268954e-002
1,016318e+003;1,287173e-002
1,018247e+003;1,331808e-002
1,020175e+003;1,405590e-002
1,022104e+003;1,434594e-002
1,024032e+003;1,430427e-002
1,025961e+003;1,479885e-002
1,027889e+003;1,476324e-002
1,029818e+003;1,422100e-002
1,031746e+003;1,522859e-002
1,033675e+003;1,780426e-002
1,035603e+003;1,961276e-002
1,037531e+003;2,063379e-002
1,039460e+003;2,117819e-002
1,041389e+003;2,199094e-002
1,043317e+003;2,341162e-002
1,045245e+003;2,430751e-002
1,047174e+003;2,533646e-002
1,049103e+003;2,544557e-002
1,051031e+003;2,457289e-002
1,052959e+003;2,402681e-002
1,054888e+003;2,336592e-002
1,056817e+003;2,357016e-002
1,058745e+003;2,471544e-002
1,060673e+003;2,597905e-002
1,062602e+003;2,663319e-002
1,064531e+003;2,649909e-002
1,066459e+003;2,580228e-002
1,068387e+003;2,490412e-002
1,070316e+003;2,501750e-002
1,072245e+003;2,466284e-002
1,074173e+003;2,397219e-002
1,076101e+003;2,478055e-002
1,078030e+003;2,522148e-002
1,079958e+003;2,469945e-002
1,081887e+003;2,355519e-002
1,083815e+003;2,213600e-002
1,085744e+003;2,068758e-002
1,087672e+003;1,944761e-002
1,089601e+003;1,941625e-002
1,091529e+003;1,973309e-002
1,093458e+003;2,015497e-002
1,095386e+003;2,053974e-002
1,097315e+003;2,101502e-002
1,099243e+003;2,201238e-002
1,101172e+003;2,288565e-002
1,103100e+003;2,292599e-002
1,105029e+003;2,347261e-002
1,106957e+003;2,432941e-002
1,108886e+003;2,491331e-002
1,110814e+003;2,474431e-002
1,112743e+003;2,409787e-002
1,114671e+003;2,493626e-002
1,116600e+003;2,617516e-002
1,118528e+003;2,623771e-002
1,120457e+003;2,574125e-002
1,122385e+003;2,431203e-002
1,124314e+003;2,355365e-002
1,126242e+003;2,465986e-002
1,128171e+003;2,472242e-002
1,130099e+003;2,360924e-002
1,132028e+003;2,220204e-002
1,133956e+003;2,117655e-002
1,135885e+003;2,200447e-002
1,137813e+003;2,216476e-002
1,139742e+003;2,117666e-002
1,141670e+003;2,154889e-002
1,143599e+003;2,144692e-002
1,145527e+003;2,146029e-002
1,147456e+003;2,257987e-002
1,149384e+003;2,310379e-002
1,151313e+003;2,432727e-002
1,153241e+003;2,450330e-002
1,155170e+003;2,364993e-002
1,157098e+003;2,282101e-002
1,159027e+003;2,096143e-002
1,160955e+003;1,935361e-002
1,162884e+003;1,772714e-002
1,164812e+003;1,639121e-002
1,166741e+003;1,587580e-002
1,168669e+003;1,548330e-002
1,170598e+003;1,475450e-002
1,172526e+003;1,454500e-002
1,174455e+003;1,454524e-002
1,176383e+003;1,449590e-002
1,178312e+003;1,415681e-002
1,180240e+003;1,406754e-002
1,182169e+003;1,443893e-002
1,184097e+003;1,434964e-002
1,186026e+003;1,349550e-002
1,187954e+003;1,376845e-002
1,189883e+003;1,456340e-002
1,191811e+003;1,543914e-002
1,193740e+003;1,645618e-002
1,195668e+003;1,751914e-002
1,197597e+003;1,802158e-002
1,199525e+003;1,743963e-002
1,201454e+003;1,635698e-002
1,203382e+003;1,533180e-002
1,205311e+003;1,420374e-002
1,207239e+003;1,283009e-002
1,209168e+003;1,154715e-002
1,211096e+003;9,891674e-003
1,213025e+003;8,214354e-003
1,214953e+003;7,337575e-003
1,216882e+003;6,630648e-003
1,218810e+003;5,953926e-003
1,220739e+003;5,698908e-003
1,222667e+003;5,493934e-003
1,224596e+003;5,533531e-003
1,226524e+003;5,287949e-003
1,228453e+003;5,497323e-003
1,230381e+003;7,552119e-003
1,232310e+003;9,413307e-003
1,234238e+003;9,147722e-003
1,236167e+003;8,942163e-003
1,238095e+003;9,471719e-003
1,240024e+003;1,052765e-002
1,241952e+003;1,254812e-002
1,243881e+003;1,446853e-002
1,245809e+003;1,602774e-002
1,247738e+003;1,667538e-002
1,249666e+003;1,642325e-002
1,251595e+003;1,608209e-002
1,253523e+003;1,521017e-002
1,255452e+003;1,396796e-002
1,257380e+003;1,310934e-002
1,259309e+003;1,195986e-002
1,261237e+003;1,059721e-002
1,263166e+003;9,791316e-003
1,265094e+003;9,645310e-003
1,267023e+003;9,405926e-003
1,268951e+003;9,302836e-003
1,270880e+003;9,584808e-003
1,272808e+003;1,046122e-002
1,274737e+003;1,148458e-002
1,276665e+003;1,199674e-002
1,278594e+003;1,209169e-002
1,280522e+003;1,161763e-002
1,282451e+003;1,075101e-002
1,284379e+003;1,004197e-002
1,286308e+003;9,488415e-003
1,288236e+003;8,795699e-003
1,290165e+003;8,373694e-003
1,292093e+003;8,230089e-003
1,294022e+003;8,063173e-003
1,295950e+003;7,870340e-003
1,297879e+003;7,471514e-003
1,299807e+003;7,236727e-003
1,301736e+003;7,191381e-003
1,303664e+003;6,821417e-003
1,305593e+003;5,784155e-003
1,307521e+003;4,933108e-003
1,309450e+003;4,691047e-003
1,311378e+003;4,428735e-003
1,313307e+003;3,816465e-003
1,315235e+003;3,360500e-003
1,317164e+003;3,093317e-003
1,319092e+003;2,826466e-003
1,321021e+003;2,801554e-003
1,322949e+003;2,616342e-003
1,324878e+003;2,498088e-003
1,326806e+003;2,487724e-003
1,328735e+003;2,495123e-003
1,330663e+003;2,769674e-003
1,332592e+003;2,757036e-003
1,334520e+003;2,629643e-003
1,336449e+003;2,425013e-003
1,338377e+003;2,087883e-003
1,340306e+003;2,225674e-003
1,342234e+003;2,664213e-003
1,344163e+003;2,929230e-003
1,346091e+003;2,964291e-003
1,348020e+003;3,049804e-003
1,349948e+003;3,370351e-003
1,351877e+003;3,604159e-003
1,353805e+003;3,703699e-003
1,355734e+003;3,901009e-003
1,357662e+003;4,222252e-003
1,359591e+003;4,357175e-003
1,361519e+003;4,385724e-003
1,363448e+003;4,713120e-003
1,365376e+003;5,193880e-003
1,367305e+003;5,388111e-003
1,369233e+003;5,465848e-003
1,371161e+003;5,568266e-003
1,373090e+003;5,645129e-003
1,375019e+003;5,606629e-003
1,376947e+003;6,321773e-003
1,378875e+003;7,192392e-003
1,380804e+003;7,758978e-003
1,382733e+003;8,014467e-003
1,384661e+003;7,851209e-003
1,386589e+003;7,488672e-003
1,388518e+003;8,070733e-003
1,390447e+003;8,489504e-003
1,392375e+003;8,214151e-003
1,394303e+003;6,989944e-003
1,396232e+003;6,057366e-003
1,398161e+003;5,518766e-003
1,400089e+003;4,911727e-003
1,402017e+003;4,815964e-003
1,403946e+003;4,275620e-003
1,405875e+003;3,887436e-003
1,407803e+003;3,961092e-003
1,409731e+003;4,144236e-003
1,411660e+003;4,041283e-003
1,413589e+003;4,079210e-003
1,415517e+003;4,114665e-003
1,417445e+003;4,531344e-003
1,419374e+003;6,553409e-003
1,421302e+003;8,924000e-003
1,423231e+003;1,014523e-002
1,425159e+003;1,137018e-002
1,427088e+003;1,229107e-002
1,429016e+003;1,296887e-002
1,430945e+003;1,290681e-002
1,432873e+003;1,250235e-002
1,434802e+003;1,279743e-002
1,436730e+003;1,373042e-002
1,438659e+003;1,442095e-002
1,440587e+003;1,454914e-002
1,442516e+003;1,380374e-002
1,444444e+003;1,244857e-002
1,446373e+003;1,159357e-002
1,448301e+003;1,091383e-002
1,450230e+003;1,019496e-002
1,452158e+003;1,007272e-002
1,454087e+003;9,612755e-003
1,456015e+003;8,149661e-003
1,457944e+003;7,774731e-003
1,459872e+003;8,509203e-003
1,461801e+003;8,760435e-003
1,463729e+003;8,254740e-003
1,465658e+003;7,800133e-003
1,467586e+003;8,115090e-003
1,469515e+003;8,082852e-003
1,471443e+003;7,338687e-003
1,473372e+003;6,765244e-003
1,475300e+003;6,774095e-003
1,477229e+003;6,317840e-003
1,479157e+003;6,247950e-003
1,481086e+003;5,948518e-003
1,483014e+003;5,716466e-003
1,484943e+003;5,229695e-003
1,486871e+003;4,405137e-003
1,488800e+003;3,730601e-003
1,490728e+003;4,574169e-003
1,492657e+003;4,977950e-003
1,494585e+003;4,306908e-003
1,496514e+003;3,029917e-003
1,498442e+003;2,274834e-003
1,500371e+003;2,132665e-003
1,502299e+003;1,654349e-003
1,504228e+003;7,987011e-004
1,506156e+003;-9,223661e-004
1,508085e+003;-1,284065e-003
1,510013e+003;-5,870034e-004
1,511942e+003;-3,160500e-004
1,513870e+003;-1,492763e-004
1,515799e+003;-4,999698e-004
1,517727e+003;-8,429067e-004
1,519656e+003;-7,709739e-004
1,521584e+003;-1,310196e-003
1,523513e+003;-1,295165e-003
1,525441e+003;-1,287930e-003
1,527370e+003;-6,746480e-004
1,529298e+003;-3,654531e-005
1,531227e+003;1,529737e-004
1,533155e+003;-3,365445e-004
1,535084e+003;-2,533021e-004
1,537012e+003;4,377227e-005
1,538941e+003;-6,912221e-004
1,540869e+003;-1,985221e-003
1,542798e+003;-1,471802e-003
1,544726e+003;-1,093768e-003
1,546655e+003;-1,335428e-004
1,548583e+003;2,018332e-004
1,550512e+003;2,296796e-004
1,552440e+003;2,640260e-004
1,554369e+003;7,117775e-005
1,556297e+003;5,265318e-005
1,558226e+003;-8,163508e-004
1,560154e+003;-6,644916e-004
1,562083e+003;3,671407e-005
1,564011e+003;8,614859e-007
1,565940e+003;-9,568057e-005
1,567868e+003;-1,514955e-004
1,569797e+003;-3,048918e-004
1,571725e+003;5,679573e-004
1,573654e+003;6,945475e-004
1,575582e+003;-3,006536e-004
1,577511e+003;-2,445929e-004
1,579439e+003;2,940979e-004
1,581368e+003;7,107100e-004
1,583296e+003;1,011068e-003
1,585225e+003;1,021032e-003
1,587153e+003;1,182173e-003
1,589082e+003;1,197025e-003
1,591010e+003;1,033321e-003
1,592939e+003;1,157721e-003
1,594867e+003;1,097592e-003
1,596796e+003;1,391637e-003
1,598724e+003;1,653384e-003
1,600653e+003;1,786679e-003
1,602581e+003;1,793000e-003
1,604510e+003;1,837653e-003
1,606438e+003;1,793832e-003
1,608367e+003;1,948205e-003
1,610295e+003;2,480060e-003
1,612224e+003;2,968228e-003
1,614152e+003;3,002158e-003
1,616081e+003;2,697686e-003
1,618009e+003;2,633943e-003
1,619938e+003;3,035289e-003
1,621866e+003;2,685983e-003
1,623795e+003;2,634210e-003
1,625723e+003;3,744203e-003
1,627652e+003;3,987409e-003
1,629580e+003;3,985469e-003
1,631509e+003;4,403196e-003
1,633437e+003;4,207196e-003
1,635366e+003;3,340666e-003
1,637294e+003;4,249889e-003
1,639223e+003;5,112504e-003
1,641151e+003;5,206556e-003
1,643080e+003;5,293417e-003
1,645008e+003;5,129435e-003
1,646937e+003;4,902914e-003
1,648865e+003;5,158237e-003
1,650794e+003;5,111565e-003
1,652722e+003;3,182994e-003
1,654651e+003;5,009925e-003
1,656579e+003;6,344366e-003
1,658508e+003;6,803982e-003
1,660436e+003;6,905605e-003
1,662365e+003;7,105016e-003
1,664293e+003;7,767580e-003
1,666222e+003;8,377376e-003
1,668150e+003;8,218979e-003
1,670079e+003;8,460650e-003
1,672007e+003;9,468807e-003
1,673936e+003;1,058258e-002
1,675864e+003;1,150401e-002
1,677793e+003;1,296085e-002
1,679721e+003;1,403739e-002
1,681650e+003;1,508500e-002
1,683578e+003;1,565786e-002
1,685507e+003;1,817817e-002
1,687435e+003;1,926098e-002
1,689364e+003;2,122084e-002
1,691292e+003;2,378144e-002
1,693221e+003;2,638320e-002
1,695149e+003;2,849380e-002
1,697078e+003;3,270794e-002
1,699006e+003;3,417160e-002
1,700935e+003;4,059440e-002
1,702863e+003;4,384190e-002
1,704792e+003;4,569428e-002
1,706720e+003;4,721267e-002
1,708649e+003;4,765813e-002
1,710577e+003;4,342451e-002
1,712505e+003;3,735579e-002
1,714434e+003;2,853304e-002
1,716363e+003;2,031990e-002
1,718291e+003;1,499973e-002
1,720219e+003;1,192488e-002
1,722148e+003;9,535559e-003
1,724077e+003;6,473358e-003
1,726005e+003;6,001460e-003
1,727933e+003;4,867998e-003
1,729862e+003;3,388516e-003
1,731791e+003;2,691284e-003
1,733719e+003;4,096304e-004
1,735647e+003;1,240918e-003
1,737576e+003;2,853547e-003
1,739505e+003;2,992182e-003
1,741433e+003;3,962998e-003
1,743361e+003;3,629217e-003
1,745290e+003;3,015770e-003
1,747219e+003;2,983474e-003
1,749147e+003;2,441706e-003
1,751075e+003;1,713656e-003
1,753004e+003;1,600503e-003
1,754932e+003;1,278269e-003
1,756861e+003;7,899709e-004
1,758789e+003;9,892824e-004
1,760718e+003;1,107292e-003
1,762646e+003;1,341580e-003
1,764575e+003;1,685914e-003
1,766503e+003;1,987247e-003
1,768432e+003;2,847277e-003
1,770360e+003;3,395563e-003
1,772289e+003;4,860593e-003
1,774217e+003;7,402854e-003
1,776146e+003;8,944835e-003
1,778074e+003;9,811684e-003
1,780003e+003;9,783521e-003
1,781931e+003;8,678827e-003
1,783860e+003;6,897525e-003
1,785788e+003;4,772043e-003
1,787717e+003;3,639742e-003
1,789645e+003;3,358964e-003
1,791574e+003;3,515564e-003
1,793502e+003;4,648077e-003
1,795431e+003;5,804403e-003
1,797359e+003;7,312403e-003
1,799288e+003;7,790282e-003
1,801216e+003;8,516130e-003
1,803145e+003;9,069053e-003
1,805073e+003;8,305904e-003
1,807002e+003;6,456543e-003
1,808930e+003;4,718312e-003
1,810859e+003;2,651278e-003
1,812787e+003;8,162284e-004
1,814716e+003;1,974575e-004
1,816644e+003;-6,221759e-004
1,818573e+003;-8,265699e-004
1,820501e+003;-8,151602e-004
1,822430e+003;-1,024356e-003
1,824358e+003;-1,511064e-003
1,826287e+003;-1,449248e-003
1,828215e+003;-1,869699e-003
1,830144e+003;-2,306785e-003
1,832072e+003;-1,923506e-003
1,834001e+003;-1,935975e-003
1,835929e+003;-2,045510e-003
1,837858e+003;-1,430061e-003
1,839786e+003;-1,408693e-003
1,841715e+003;-1,908892e-003
1,843643e+003;-2,358065e-003
1,845572e+003;-2,255894e-003
1,847500e+003;-1,949136e-003
1,849429e+003;-1,513705e-003
1,851357e+003;-1,268769e-003
1,853286e+003;-1,128602e-003
1,855214e+003;-1,000687e-003
1,857143e+003;-8,765043e-004
1,859071e+003;-1,003166e-003
1,861000e+003;-7,752075e-004
1,862928e+003;-5,144656e-004
1,864857e+003;-7,029658e-004
1,866785e+003;-1,172950e-003
1,868714e+003;-1,735601e-003
1,870642e+003;-1,369026e-003
1,872571e+003;-6,673367e-004
1,874499e+003;-5,250558e-004
1,876428e+003;-5,560969e-004
1,878356e+003;-4,518457e-004
1,880285e+003;-5,897498e-004
1,882213e+003;-6,737548e-004
1,884142e+003;-6,676675e-004
1,886070e+003;-8,798110e-004
1,887999e+003;-1,013447e-003
1,889927e+003;-9,088428e-004
1,891856e+003;-9,421047e-004
1,893784e+003;-1,020455e-003
1,895713e+003;-6,734902e-004
1,897641e+003;-6,428875e-004
1,899570e+003;-9,047428e-004
1,901498e+003;-7,873459e-004
1,903427e+003;-7,650865e-004
1,905355e+003;-1,179229e-003
1,907284e+003;-1,753091e-003
1,909212e+003;-2,667728e-003
1,911141e+003;-2,669901e-003
1,913069e+003;-1,556793e-003
1,914998e+003;-1,092677e-003
1,916926e+003;-1,858812e-003
1,918855e+003;-1,788862e-003
1,920783e+003;-1,846044e-003
1,922712e+003;-1,948048e-003
1,924640e+003;-1,750451e-003
1,926569e+003;-1,726624e-003
1,928497e+003;-1,958306e-003
1,930426e+003;-2,366567e-003
1,932354e+003;-2,891865e-003
1,934283e+003;-2,949659e-003
1,936211e+003;-2,227776e-003
1,938140e+003;-1,230675e-003
1,940068e+003;-1,437227e-003
1,941997e+003;-2,598666e-003
1,943925e+003;-2,822674e-003
1,945854e+003;-2,980000e-003
1,947782e+003;-2,980494e-003
1,949711e+003;-2,500933e-003
1,951639e+003;-1,901667e-003
1,953568e+003;-2,284471e-003
1,955496e+003;-2,273923e-003
1,957425e+003;-1,299228e-003
1,959353e+003;-2,046829e-003
1,961282e+003;-3,058181e-003
1,963210e+003;-3,094865e-003
1,965139e+003;-1,831757e-003
1,967067e+003;-7,866182e-004
1,968996e+003;1,596360e-004
1,970924e+003;8,183862e-004
1,972853e+003;-1,024290e-003
1,974781e+003;-1,822057e-003
1,976710e+003;-1,274319e-003
1,978638e+003;5,008778e-004
1,980567e+003;1,339586e-003
1,982495e+003;7,775231e-004
1,984424e+003;-3,026733e-004
1,986352e+003;-1,763288e-003
1,988281e+003;-2,352463e-003
1,990209e+003;-1,714677e-003
1,992138e+003;2,683940e-005
1,994066e+003;6,637179e-004
1,995995e+003;-1,823646e-004
1,997923e+003;-2,425728e-004
1,999852e+003;-2,069722e-004
2,001780e+003;-1,627671e-003
2,003709e+003;-2,623071e-003
2,005637e+003;-2,222633e-003
2,007566e+003;-1,280695e-003
2,009494e+003;-1,260278e-003
2,011423e+003;-1,867654e-003
2,013351e+003;-1,267712e-003
2,015280e+003;4,418683e-004
2,017208e+003;2,287182e-004
2,019137e+003;-1,689131e-003
2,021065e+003;-2,478860e-003
2,022994e+003;-2,264134e-003
2,024922e+003;-1,861386e-003
2,026851e+003;-2,063779e-003
2,028779e+003;-2,045444e-003
2,030708e+003;-5,985845e-004
2,032636e+003;-7,780189e-004
2,034565e+003;-2,083697e-003
2,036493e+003;-1,649886e-003
2,038422e+003;-1,286378e-003
2,040350e+003;-1,024455e-003
2,042279e+003;-6,175746e-005
2,044207e+003;-7,513267e-004
2,046135e+003;-1,404895e-003
2,048064e+003;-1,365101e-005
2,049992e+003;1,917186e-003
2,051921e+003;6,866491e-004
2,053850e+003;-6,003382e-004
2,055778e+003;-4,963623e-004
2,057707e+003;-4,044445e-004
2,059635e+003;-1,868720e-005
2,061563e+003;-9,498491e-005
2,063492e+003;-7,125260e-004
2,065420e+003;-1,292357e-003
2,067349e+003;-9,995631e-004
2,069278e+003;-1,806092e-004
2,071206e+003;2,496373e-004
2,073135e+003;4,432614e-004
2,075063e+003;5,722626e-005
2,076991e+003;1,010043e-004
2,078920e+003;1,954685e-004
2,080848e+003;4,786529e-004
2,082777e+003;6,058476e-004
2,084706e+003;2,595171e-004
2,086634e+003;-1,027696e-004
2,088563e+003;-7,968711e-004
2,090491e+003;-1,216732e-003
2,092419e+003;-1,185110e-003
2,094348e+003;-1,317860e-003
2,096276e+003;-1,052651e-003
2,098205e+003;-5,392198e-004
2,100134e+003;-4,134485e-004
2,102062e+003;-3,740547e-004
2,103990e+003;-2,493283e-004
2,105919e+003;-3,606468e-004
2,107847e+003;-4,283113e-004
2,109776e+003;-1,686526e-004
2,111704e+003;-2,888328e-004
2,113633e+003;-9,361535e-004
2,115562e+003;-1,478209e-003
2,117490e+003;-1,491714e-003
2,119418e+003;-9,980424e-004
2,121347e+003;-1,597235e-003
2,123275e+003;-2,085543e-003
2,125204e+003;-2,281504e-003
2,127132e+003;-1,974007e-003
2,129061e+003;-2,515790e-003
2,130990e+003;-3,735392e-003
2,132918e+003;-4,374582e-003
2,134846e+003;-3,536964e-003
2,136775e+003;-3,275540e-003
2,138703e+003;-3,229499e-003
2,140632e+003;-2,526463e-003
2,142560e+003;-3,078909e-003
2,144489e+003;-3,648330e-003
2,146417e+003;-2,870207e-003
2,148346e+003;-2,861616e-003
2,150274e+003;-3,993453e-003
2,152203e+003;-4,959506e-003
2,154131e+003;-5,474513e-003
2,156060e+003;-6,389778e-003
2,157988e+003;-4,212543e-003
2,159917e+003;1,484327e-004
2,161845e+003;2,765916e-004
2,163774e+003;-6,813969e-004
2,165702e+003;1,179069e-004
2,167631e+003;1,898150e-003
2,169559e+003;6,060798e-004
2,171488e+003;-9,346657e-004
2,173416e+003;-1,217525e-003
2,175345e+003;-1,540582e-003
2,177273e+003;-2,765522e-003
2,179202e+003;-2,383439e-003
2,181130e+003;-1,391948e-003
2,183059e+003;-1,397199e-003
2,184987e+003;-1,538568e-003
2,186916e+003;-1,128503e-003
2,188844e+003;-1,364170e-003
2,190773e+003;-1,385640e-003
2,192701e+003;-1,082861e-003
2,194630e+003;-6,657818e-004
2,196558e+003;-1,120117e-004
2,198487e+003;-4,791520e-004
2,200415e+003;-7,464644e-004
2,202344e+003;-7,746452e-004
2,204272e+003;-1,107318e-003
2,206201e+003;-1,476524e-003
2,208129e+003;-1,090463e-003
2,210058e+003;-1,082497e-003
2,211986e+003;-1,399776e-003
2,213915e+003;-1,513507e-003
2,215843e+003;-1,632490e-003
2,217772e+003;-1,035958e-003
2,219700e+003;-4,020280e-004
2,221629e+003;-6,315061e-004
2,223557e+003;-8,873502e-004
2,225486e+003;-1,302235e-003
2,227414e+003;-1,283338e-003
2,229343e+003;-5,916028e-004
2,231271e+003;-1,968117e-005
2,233200e+003;-1,158874e-004
2,235128e+003;-4,640262e-004
2,237057e+003;-5,785655e-004
2,238985e+003;-9,263007e-004
2,240914e+003;-9,005765e-004
2,242842e+003;-2,042896e-004
2,244771e+003;-4,714718e-005
2,246699e+003;1,609950e-004
2,248628e+003;-4,726317e-004
2,250556e+003;-7,390220e-004
2,252485e+003;-4,487343e-004
2,254413e+003;-4,951378e-004
2,256342e+003;2,744365e-004
2,258270e+003;-2,325387e-004
2,260199e+003;-5,187679e-004
2,262127e+003;-3,345249e-004
2,264056e+003;-3,290289e-004
2,265984e+003;1,490625e-004
2,267913e+003;5,687204e-004
2,269841e+003;-2,887003e-004
2,271770e+003;-6,176099e-004
2,273698e+003;6,918939e-005
2,275627e+003;2,753317e-004
2,277555e+003;-4,399297e-004
2,279484e+003;-6,554928e-004
2,281412e+003;2,508308e-004
2,283341e+003;9,526869e-004
2,285269e+003;8,554019e-004
2,287198e+003;9,000241e-004
2,289126e+003;7,747681e-004
2,291055e+003;3,857852e-004
2,292983e+003;1,143938e-004
2,294912e+003;1,262259e-004
2,296840e+003;1,117755e-004
2,298769e+003;-2,545273e-004
2,300697e+003;-4,367851e-004
2,302626e+003;5,994361e-005
2,304554e+003;1,593377e-004
2,306483e+003;5,503913e-005
2,308411e+003;-2,768461e-004
2,310340e+003;-9,471989e-005
2,312268e+003;8,701871e-005
2,314197e+003;2,118776e-004
2,316125e+003;2,581909e-004
2,318054e+003;-3,376227e-005
2,319982e+003;5,261558e-004
2,321911e+003;1,077762e-003
2,323839e+003;8,487289e-004
2,325768e+003;1,873140e-004
2,327696e+003;-2,511828e-004
2,329625e+003;-8,145319e-004
2,331553e+003;-1,457669e-003
2,333482e+003;-1,382964e-003
2,335410e+003;-1,125462e-003
2,337339e+003;-1,491516e-003
2,339267e+003;-2,348475e-003
2,341196e+003;-2,681196e-003
2,343124e+003;-2,889232e-003
2,345053e+003;-2,903945e-003
2,346981e+003;-2,538092e-003
2,348910e+003;-1,690617e-003
2,350838e+003;-1,421969e-003
2,352767e+003;-2,034363e-003
2,354695e+003;-2,540463e-003
2,356624e+003;-2,548995e-003
2,358552e+003;-2,515032e-003
2,360481e+003;-2,390821e-003
2,362409e+003;-2,591057e-003
2,364338e+003;-3,799117e-003
2,366266e+003;-3,597333e-003
2,368195e+003;-2,794889e-003
2,370123e+003;-2,189205e-003
2,372052e+003;-1,862210e-003
2,373980e+003;-2,664896e-003
2,375909e+003;-2,477805e-003
2,377837e+003;-1,396770e-003
2,379766e+003;-1,618230e-003
2,381694e+003;-1,913312e-003
2,383623e+003;-1,549364e-003
2,385551e+003;-1,168886e-003
2,387479e+003;-1,190728e-003
2,389408e+003;-1,300319e-003
2,391337e+003;-1,189902e-003
2,393265e+003;-9,365171e-004
2,395194e+003;-7,456045e-004
2,397122e+003;-8,570603e-004
2,399051e+003;-1,075127e-003
2,400979e+003;-1,210256e-003
2,402907e+003;-1,493266e-003
2,404836e+003;-1,492308e-003
2,406765e+003;-1,103154e-003
2,408693e+003;-9,448819e-004
2,410622e+003;-8,742226e-004
2,412550e+003;-6,729939e-004
2,414479e+003;-8,109601e-004
2,416407e+003;-1,085241e-003
2,418335e+003;-1,290870e-003
2,420264e+003;-1,378770e-003
2,422193e+003;-1,269859e-003
2,424121e+003;-1,017315e-003
2,426050e+003;-6,617787e-004
2,427978e+003;-7,296278e-004
2,429906e+003;-9,291772e-004
2,431835e+003;-6,251537e-004
2,433763e+003;-8,188312e-004
2,435692e+003;-1,203284e-003
2,437621e+003;-9,405178e-004
2,439549e+003;-1,119943e-003
2,441478e+003;-1,053841e-003
2,443406e+003;-7,382612e-004
2,445334e+003;-9,919597e-004
2,447263e+003;-1,314887e-003
2,449191e+003;-1,179625e-003
2,451120e+003;-4,489329e-004
2,453049e+003;-8,706753e-005
2,454977e+003;-4,477082e-004
2,456906e+003;-7,438514e-004
2,458834e+003;-1,074862e-003
2,460762e+003;-1,577724e-003
2,462691e+003;-1,298105e-003
2,464619e+003;-1,035694e-003
2,466548e+003;-1,428211e-003
2,468477e+003;-9,963895e-004
2,470405e+003;-6,221097e-004
2,472333e+003;-4,681966e-004
2,474262e+003;-5,921653e-004
2,476190e+003;-1,098362e-003
2,478119e+003;-1,208736e-003
2,480047e+003;-1,588552e-003
2,481976e+003;-1,311484e-003
2,483905e+003;-1,093338e-003
2,485833e+003;-1,569437e-003
2,487761e+003;-1,624931e-003
2,489690e+003;-1,323079e-003
2,491618e+003;-1,433462e-003
2,493547e+003;-1,241678e-003
2,495475e+003;-9,658758e-004
2,497404e+003;-8,057015e-004
2,499333e+003;-9,090412e-004
2,501261e+003;-1,065806e-003
2,503189e+003;-1,079391e-003
2,505118e+003;-1,231931e-003
2,507046e+003;-1,230907e-003
2,508975e+003;-1,114259e-003
2,510903e+003;-7,025358e-004
2,512832e+003;-7,066708e-004
2,514760e+003;-1,175924e-003
2,516689e+003;-1,661175e-003
2,518617e+003;-1,946662e-003
2,520546e+003;-1,635230e-003
2,522474e+003;-1,635560e-003
2,524403e+003;-1,685303e-003
2,526331e+003;-1,224331e-003
2,528260e+003;-1,034008e-003
2,530188e+003;-8,512732e-004
2,532117e+003;-1,386994e-003
2,534045e+003;-2,016653e-003
2,535974e+003;-1,457735e-003
2,537902e+003;-8,669478e-004
2,539831e+003;-1,073474e-003
2,541759e+003;-1,310427e-003
2,543688e+003;-1,383162e-003
2,545616e+003;-1,485374e-003
2,547545e+003;-8,722717e-004
2,549473e+003;-8,586807e-004
2,551402e+003;-1,131246e-003
2,553330e+003;-9,851827e-004
2,555259e+003;-1,125198e-003
2,557187e+003;-7,884043e-004
2,559116e+003;-3,758424e-004
2,561044e+003;-3,596536e-004
2,562973e+003;-3,523369e-004
2,564901e+003;-3,890512e-004
2,566830e+003;-7,057446e-004
2,568758e+003;-1,262624e-003
2,570687e+003;-1,169513e-003
2,572615e+003;-9,508000e-004
2,574544e+003;-1,032653e-003
2,576472e+003;-1,226248e-003
2,578401e+003;-1,308181e-003
2,580329e+003;-8,676091e-004
2,582258e+003;-4,994734e-004
2,584186e+003;-5,840253e-004
2,586115e+003;-8,845396e-004
2,588043e+003;-1,355087e-003
2,589972e+003;-1,496568e-003
2,591900e+003;-1,252845e-003
2,593829e+003;-8,059992e-004
2,595757e+003;-7,255592e-004
2,597686e+003;-8,936328e-004
2,599614e+003;-6,667412e-004
2,601543e+003;-8,232297e-004
2,603471e+003;-1,025314e-003
2,605400e+003;-1,061674e-003
2,607328e+003;-8,478671e-004
2,609257e+003;-6,103307e-004
2,611185e+003;-3,750810e-004
2,613114e+003;-2,510172e-004
2,615042e+003;-4,334750e-004
2,616971e+003;-7,055461e-004
2,618899e+003;-4,759415e-004
2,620828e+003;-3,067460e-004
2,622756e+003;-6,119850e-004
2,624685e+003;-7,574790e-004
2,626613e+003;-7,828478e-004
2,628542e+003;-3,913686e-004
2,630470e+003;-2,736341e-004
2,632399e+003;-4,308269e-004
2,634327e+003;-3,195265e-004
2,636256e+003;-3,879588e-004
2,638184e+003;-3,742533e-004
2,640113e+003;-9,236788e-005
2,642041e+003;7,147600e-005
2,643970e+003;-1,279117e-004
2,645898e+003;-4,047756e-004
2,647827e+003;-4,092775e-004
2,649755e+003;-6,946295e-004
2,651684e+003;-5,268098e-004
2,653612e+003;-2,011433e-004
2,655541e+003;-3,103219e-004
2,657469e+003;-4,808400e-004
2,659398e+003;-4,220550e-004
2,661326e+003;-7,438844e-004
2,663255e+003;-9,633302e-004
2,665183e+003;-1,228197e-003
2,667112e+003;-1,453805e-003
2,669040e+003;-1,379430e-003
2,670969e+003;-1,164358e-003
2,672897e+003;-9,539408e-004
2,674826e+003;-7,876766e-004
2,676754e+003;-8,604664e-004
2,678683e+003;-1,198526e-003
2,680611e+003;-1,529356e-003
2,682540e+003;-1,346268e-003
2,684468e+003;-1,147406e-003
2,686397e+003;-1,241479e-003
2,688325e+003;-1,242206e-003
2,690254e+003;-1,045941e-003
2,692182e+003;-1,177808e-003
2,694111e+003;-1,417742e-003
2,696039e+003;-1,085141e-003
2,697968e+003;-6,432184e-004
2,699896e+003;-6,412333e-004
2,701825e+003;-7,693863e-004
2,703753e+003;-9,541062e-004
2,705682e+003;-9,276894e-004
2,707610e+003;-1,069574e-003
2,709539e+003;-1,094693e-003
2,711467e+003;-6,829186e-004
2,713396e+003;-7,386251e-004
2,715324e+003;-1,156427e-003
2,717253e+003;-1,394821e-003
2,719181e+003;-1,060352e-003
2,721110e+003;-1,040355e-003
2,723038e+003;-1,252250e-003
2,724967e+003;-1,142184e-003
2,726895e+003;-9,801246e-004
2,728823e+003;-9,107606e-004
2,730752e+003;-8,116877e-004
2,732681e+003;-1,029711e-003
2,734609e+003;-9,703059e-004
2,736538e+003;-7,889004e-004
2,738466e+003;-8,743218e-004
2,740395e+003;-1,063691e-003
2,742323e+003;-1,242470e-003
2,744251e+003;-1,551477e-003
2,746180e+003;-1,697581e-003
2,748109e+003;-1,603045e-003
2,750037e+003;-1,511427e-003
2,751966e+003;-1,305076e-003
2,753894e+003;-1,276004e-003
2,755823e+003;-1,180451e-003
2,757751e+003;-1,233021e-003
2,759679e+003;-1,585218e-003
2,761608e+003;-1,578747e-003
2,763537e+003;-1,357366e-003
2,765465e+003;-1,464339e-003
2,767394e+003;-1,320403e-003
2,769322e+003;-8,706513e-004
2,771250e+003;-7,976979e-004
2,773179e+003;-7,858244e-004
2,775107e+003;-6,851682e-004
2,777036e+003;-6,639292e-004
2,778965e+003;-9,558914e-004
2,780893e+003;-1,630642e-003
2,782822e+003;-1,529752e-003
2,784750e+003;-1,120241e-003
2,786678e+003;-1,204474e-003
2,788607e+003;-1,210289e-003
2,790535e+003;-9,673305e-004
2,792464e+003;-7,894626e-004
2,794393e+003;-7,051822e-004
2,796321e+003;-7,867505e-004
2,798250e+003;-1,039892e-003
2,800178e+003;-1,436203e-003
2,802106e+003;-1,273592e-003
2,804035e+003;-1,085241e-003
2,805963e+003;-1,189241e-003
2,807892e+003;-1,199649e-003
2,809821e+003;-1,230114e-003
2,811749e+003;-1,082200e-003
2,813677e+003;-8,683366e-004
2,815606e+003;-5,735689e-004
2,817534e+003;-4,012997e-004
2,819463e+003;-1,336422e-004
2,821391e+003;-3,004880e-004
2,823320e+003;-5,239637e-004
2,825249e+003;-7,104420e-004
2,827177e+003;-6,546657e-004
2,829105e+003;-4,673360e-004
2,831034e+003;-4,565458e-004
2,832962e+003;-5,056623e-004
2,834891e+003;-4,215916e-004
2,836819e+003;-3,188643e-004
2,838748e+003;-1,547084e-004
2,840677e+003;3,525605e-005
2,842605e+003;-1,437994e-005
2,844533e+003;9,208926e-005
2,846462e+003;2,371719e-004
2,848390e+003;-2,375646e-005
2,850319e+003;2,425479e-005
2,852247e+003;-3,949398e-005
2,854176e+003;-3,371736e-004
2,856104e+003;-3,729622e-004
2,858033e+003;1,971520e-005
2,859961e+003;1,784303e-004
2,861890e+003;2,283204e-004
2,863818e+003;3,157828e-004
2,865747e+003;1,506203e-004
2,867675e+003;1,378263e-004
2,869604e+003;3,159486e-004
2,871532e+003;3,748083e-004
2,873461e+003;3,935787e-004
2,875389e+003;3,226134e-004
2,877318e+003;5,803326e-004
2,879246e+003;1,007349e-003
2,881175e+003;8,921219e-004
2,883103e+003;6,007710e-004
2,885032e+003;8,170583e-004
2,886960e+003;9,898469e-004
2,888889e+003;7,576076e-004
2,890817e+003;9,675638e-004
2,892746e+003;1,324131e-003
2,894674e+003;1,019637e-003
2,896603e+003;1,161143e-003
2,898531e+003;1,342810e-003
2,900460e+003;1,330412e-003
2,902388e+003;1,337060e-003
2,904317e+003;9,691246e-004
2,906245e+003;7,287979e-004
2,908174e+003;1,297643e-003
2,910102e+003;1,691269e-003
2,912031e+003;1,572103e-003
2,913959e+003;1,467664e-003
2,915888e+003;2,072568e-003
2,917816e+003;2,616642e-003
2,919745e+003;2,457001e-003
2,921673e+003;2,431443e-003
2,923602e+003;2,891370e-003
2,925530e+003;2,513718e-003
2,927459e+003;2,362143e-003
2,929387e+003;2,624809e-003
2,931316e+003;2,706921e-003
2,933244e+003;2,588609e-003
2,935173e+003;2,839106e-003
2,937101e+003;3,351317e-003
2,939030e+003;3,647694e-003
2,940958e+003;3,500833e-003
2,942887e+003;3,451201e-003
2,944815e+003;3,171179e-003
2,946744e+003;2,212053e-003
2,948672e+003;1,431128e-003
2,950601e+003;1,582046e-003
2,952529e+003;2,458334e-003
2,954458e+003;3,297028e-003
2,956386e+003;3,652306e-003
2,958315e+003;3,977611e-003
2,960243e+003;4,280439e-003
2,962172e+003;4,031451e-003
2,964100e+003;4,000751e-003
2,966029e+003;3,595506e-003
2,967957e+003;3,329380e-003
2,969886e+003;2,898175e-003
2,971814e+003;2,180183e-003
2,973743e+003;1,815226e-003
2,975671e+003;1,840548e-003
2,977600e+003;1,813796e-003
2,979528e+003;2,143920e-003
2,981457e+003;2,283494e-003
2,983385e+003;1,572502e-003
2,985314e+003;1,091048e-003
2,987242e+003;1,158419e-003
2,989171e+003;1,533929e-003
2,991099e+003;1,063080e-003
2,993028e+003;7,899709e-004
2,994956e+003;1,058364e-003
2,996885e+003;1,537188e-003
2,998813e+003;2,116649e-003
3,000742e+003;2,679982e-003
3,002670e+003;2,848878e-003
3,004599e+003;2,583443e-003
3,006527e+003;2,161435e-003
3,008456e+003;1,686413e-003
3,010384e+003;1,581481e-003
3,012313e+003;1,831264e-003
3,014241e+003;1,850929e-003
3,016170e+003;1,438342e-003
3,018098e+003;1,544536e-003
3,020027e+003;1,642541e-003
3,021955e+003;1,584674e-003
3,023884e+003;1,444559e-003
3,025812e+003;1,300402e-003
3,027741e+003;9,224698e-004
3,029669e+003;7,299596e-004
3,031598e+003;2,893897e-004
3,033526e+003;-1,861403e-004
3,035455e+003;3,784072e-005
3,037383e+003;8,283518e-007
3,039312e+003;1,226464e-004
3,041240e+003;3,871118e-004
3,043169e+003;5,214782e-004
3,045097e+003;2,117118e-004
3,047026e+003;1,328547e-004
3,048954e+003;4,346710e-004
3,050883e+003;4,949732e-004
3,052811e+003;-4,300585e-005
3,054740e+003;-5,560307e-004
3,056668e+003;-9,094711e-004
3,058597e+003;-1,129759e-003
3,060525e+003;-7,550975e-004
3,062454e+003;-4,391022e-004
3,064382e+003;-4,023259e-004
3,066311e+003;-7,725285e-004
3,068239e+003;-1,206687e-003
3,070167e+003;-1,544081e-003
3,072096e+003;-1,305802e-003
3,074025e+003;-8,777939e-004
3,075953e+003;-1,100609e-003
3,077882e+003;-1,632754e-003
3,079810e+003;-1,322584e-003
3,081739e+003;-9,799594e-004
3,083667e+003;-6,254183e-004
3,085595e+003;-2,217758e-004
3,087524e+003;-7,963089e-004
3,089453e+003;-1,115845e-003
3,091381e+003;-1,397860e-003
3,093310e+003;-1,622191e-003
3,095238e+003;-1,041115e-003
3,097167e+003;-4,681304e-004
3,099095e+003;-7,122614e-004
3,101023e+003;-1,177874e-003
3,102952e+003;-1,061278e-003
3,104881e+003;-8,285872e-004
3,106809e+003;-1,359216e-003
3,108738e+003;-1,229585e-003
3,110666e+003;-7,176533e-004
3,112594e+003;-1,235598e-003
3,114523e+003;-1,994654e-003
3,116451e+003;-1,861254e-003
3,118380e+003;-1,400799e-003
3,120309e+003;-1,427452e-003
3,122237e+003;-1,425569e-003
3,124166e+003;-1,075127e-003
3,126094e+003;-1,128965e-003
3,128022e+003;-1,305802e-003
3,129951e+003;-1,428310e-003
3,131879e+003;-1,406480e-003
3,133808e+003;-1,518460e-003
3,135737e+003;-1,200112e-003
3,137665e+003;-8,083474e-004
3,139594e+003;-8,486938e-004
3,141522e+003;-1,427220e-003
3,143450e+003;-1,320668e-003
3,145379e+003;-6,571470e-004
3,147307e+003;-9,176049e-004
3,149236e+003;-9,821412e-004
3,151165e+003;-1,038338e-003
3,153093e+003;-1,387918e-003
3,155021e+003;-1,669031e-003
3,156950e+003;-1,454102e-003
3,158878e+003;-7,257577e-004
3,160807e+003;-7,747445e-004
3,162735e+003;-1,237349e-003
3,164664e+003;-9,867365e-004
3,166593e+003;-1,070731e-003
3,168521e+003;-1,230576e-003
3,170449e+003;-1,233616e-003
3,172378e+003;-1,406546e-003
3,174306e+003;-1,642624e-003
3,176235e+003;-1,164656e-003
3,178163e+003;-1,206357e-003
3,180092e+003;-1,565509e-003
3,182021e+003;-1,500696e-003
3,183949e+003;-1,878772e-003
3,185877e+003;-1,763651e-003
3,187806e+003;-1,375632e-003
3,189734e+003;-1,701409e-003
3,191663e+003;-2,337731e-003
3,193591e+003;-2,400080e-003
3,195520e+003;-1,970939e-003
3,197448e+003;-1,406018e-003
3,199377e+003;-1,472232e-003
3,201305e+003;-1,505814e-003
3,203234e+003;-1,519748e-003
3,205162e+003;-2,145489e-003
3,207091e+003;-1,867852e-003
3,209019e+003;-1,734214e-003
3,210948e+003;-1,607600e-003
3,212876e+003;-1,713786e-003
3,214805e+003;-1,465660e-003
3,216733e+003;-1,207513e-003
3,218662e+003;-8,460483e-004
3,220590e+003;-4,747500e-004
3,222519e+003;-8,928722e-004
3,224447e+003;-1,436269e-003
3,226376e+003;-1,064847e-003
3,228304e+003;-8,526621e-004
3,230233e+003;-1,551213e-003
3,232161e+003;-1,990663e-003
3,234090e+003;-1,854688e-003
3,236018e+003;-1,704446e-003
3,237947e+003;-1,486761e-003
3,239875e+003;-1,402352e-003
3,241804e+003;-1,015199e-003
3,243732e+003;-9,763559e-004
3,245661e+003;-1,416949e-003
3,247589e+003;-1,120241e-003
3,249518e+003;-1,026240e-003
3,251446e+003;-1,583600e-003
3,253375e+003;-1,572376e-003
3,255303e+003;-1,576601e-003
3,257232e+003;-2,002735e-003
3,259160e+003;-2,158743e-003
3,261089e+003;-1,772726e-003
3,263017e+003;-2,081982e-003
3,264946e+003;-2,007418e-003
3,266874e+003;-1,879201e-003
3,268803e+003;-2,009067e-003
3,270731e+003;-1,683883e-003
3,272660e+003;-1,572376e-003
3,274588e+003;-1,407834e-003
3,276517e+003;-1,251589e-003
3,278445e+003;-1,335532e-003
3,280374e+003;-1,354426e-003
3,282302e+003;-1,708538e-003
3,284231e+003;-2,099294e-003
3,286159e+003;-2,044257e-003
3,288088e+003;-1,482138e-003
3,290016e+003;-1,604101e-003
3,291945e+003;-8,732306e-004
3,293873e+003;-5,110568e-004
3,295802e+003;-1,287270e-003
3,297730e+003;-1,876232e-003
3,299659e+003;-1,973314e-003
3,301587e+003;-1,710419e-003
3,303516e+003;-1,670417e-003
3,305444e+003;-1,161715e-003
3,307373e+003;-5,357119e-004
3,309301e+003;-5,212831e-004
3,311230e+003;-1,133295e-003
3,313158e+003;-1,835420e-003
3,315087e+003;-2,161182e-003
3,317015e+003;-1,433462e-003
3,318944e+003;-1,088347e-003
3,320872e+003;-6,881125e-004
3,322801e+003;-8,143996e-004
3,324729e+003;-1,559830e-003
3,326658e+003;-1,600437e-003
3,328586e+003;-1,637805e-003
3,330515e+003;-2,083697e-003
3,332443e+003;-2,085346e-003
3,334372e+003;-1,611760e-003
3,336300e+003;-1,056154e-003
3,338229e+003;-1,072582e-003
3,340157e+003;-1,257999e-003
3,342086e+003;-1,723588e-003
3,344014e+003;-1,682992e-003
3,345943e+003;-1,596607e-003
3,347871e+003;-1,442709e-003
3,349800e+003;-1,125462e-003
3,351728e+003;-7,507314e-004
3,353657e+003;-3,866015e-004
3,355585e+003;-1,477449e-003
3,357514e+003;-1,765829e-003
3,359442e+003;-1,752299e-003
3,361371e+003;-1,699099e-003
3,363299e+003;-1,788697e-003
3,365228e+003;-1,767941e-003
3,367156e+003;-1,523710e-003
3,369085e+003;-1,473685e-003
3,371013e+003;-1,106922e-003
3,372942e+003;-1,015133e-003
3,374870e+003;-8,830515e-004
3,376799e+003;-9,929514e-004
3,378727e+003;-1,339959e-003
3,380656e+003;-1,379199e-003
3,382584e+003;-1,822420e-003
3,384513e+003;-2,495200e-003
3,386441e+003;-1,735765e-003
3,388370e+003;-8,029565e-004
3,390298e+003;-1,319511e-003
3,392227e+003;-1,906616e-003
3,394155e+003;-1,582181e-003
3,396083e+003;-1,150182e-003
3,398012e+003;-7,754060e-004
3,399941e+003;-4,381754e-004
3,401869e+003;-1,053535e-004
3,403798e+003;1,081961e-004
3,405726e+003;-3,545882e-004
3,407655e+003;-1,316373e-003
3,409583e+003;-1,147968e-003
3,411511e+003;-9,709341e-004
3,413440e+003;-1,234508e-003
3,415369e+003;-1,351421e-003
3,417297e+003;-1,278284e-003
3,419226e+003;-1,527837e-003
3,421154e+003;-1,762991e-003
3,423083e+003;-1,126817e-003
3,425011e+003;-5,455405e-004
3,426939e+003;-4,944097e-004
3,428868e+003;-8,086450e-004
3,430797e+003;-1,018670e-003
3,432725e+003;-1,241413e-003
3,434654e+003;-6,650209e-004
3,436582e+003;-6,407651e-005
3,438510e+003;-6,551620e-004
3,440439e+003;-1,376920e-003
3,442367e+003;-1,440959e-003
3,444296e+003;-4,344019e-004
3,446225e+003;-1,019067e-003
3,448153e+003;-6,666089e-004
3,450082e+003;-8,834814e-004
3,452010e+003;-1,187886e-003
3,453938e+003;-2,212790e-004
3,455867e+003;4,736774e-004
3,457795e+003;4,834959e-004
3,459724e+003;-9,085122e-004
3,461653e+003;-1,081506e-003
3,463581e+003;1,919216e-004
3,465510e+003;3,677779e-004
3,467438e+003;-7,939606e-004
3,469366e+003;-8,101994e-004
3,471295e+003;-2,682035e-004
3,473223e+003;-2,702565e-004
3,475152e+003;-7,734546e-004
3,477081e+003;-5,825032e-004
3,479009e+003;-1,765023e-004
3,480938e+003;8,145111e-005
3,482866e+003;-1,405852e-003
3,484794e+003;-3,862767e-003
3,486723e+003;-3,461729e-003
3,488651e+003;-1,750022e-003
3,490580e+003;-6,785187e-004
3,492509e+003;-1,181178e-003
3,494437e+003;-7,777874e-004
3,496365e+003;-4,329123e-004
3,498294e+003;-9,709341e-004
3,500222e+003;-5,154915e-004
3,502151e+003;7,595991e-004
3,504079e+003;4,925185e-004
3,506008e+003;-4,002073e-004
3,507937e+003;-5,867386e-004
3,509865e+003;-6,341392e-005
3,511793e+003;-8,283431e-006
3,513722e+003;-2,230342e-004
3,515650e+003;-5,198931e-004
3,517579e+003;-5,400141e-004
3,519507e+003;-1,381667e-005
3,521436e+003;4,085691e-004
3,523365e+003;5,505063e-004
3,525293e+003;9,756999e-004
3,527221e+003;1,353013e-003
3,529150e+003;7,823030e-004
3,531078e+003;-1,038140e-003
3,533007e+003;-1,482072e-003
3,534935e+003;-1,016092e-003
3,536864e+003;-1,070665e-003
3,538792e+003;1,588405e-004
3,540721e+003;3,634668e-004
3,542649e+003;2,463552e-004
3,544578e+003;-2,943955e-004
3,546506e+003;-7,017088e-004
3,548435e+003;1,551944e-004
3,550363e+003;4,294306e-004
3,552292e+003;-8,090088e-004
3,554220e+003;-1,599810e-003
3,556149e+003;-1,158542e-003
3,558077e+003;-9,684876e-004
3,560006e+003;-1,438548e-003
3,561934e+003;-2,339050e-003
3,563863e+003;-2,167084e-003
3,565791e+003;-2,203612e-003
3,567720e+003;-2,682349e-003
3,569648e+003;-1,144927e-003
3,571577e+003;-1,147571e-003
3,573505e+003;-1,062567e-003
3,575434e+003;-1,268472e-003
3,577362e+003;-1,149488e-003
3,579291e+003;-3,220428e-004
3,581219e+003;-2,736672e-004
3,583148e+003;-7,381637e-005
3,585076e+003;-9,390630e-004
3,587005e+003;-2,271484e-003
3,588933e+003;-1,539393e-003
3,590862e+003;-7,155693e-004
3,592790e+003;-1,576799e-003
3,594719e+003;-1,835981e-003
3,596647e+003;-9,362857e-004
3,598576e+003;-9,871993e-004
3,600504e+003;-4,503893e-004
3,602433e+003;-9,690625e-005
3,604361e+003;-4,658396e-005
3,606290e+003;-9,165799e-004
3,608218e+003;-1,688768e-003
3,610147e+003;-1,391419e-003
3,612075e+003;-5,058940e-004
3,614004e+003;-3,726643e-004
3,615932e+003;-1,275542e-003
3,617861e+003;-1,744973e-003
3,619789e+003;-1,829382e-003
3,621718e+003;-1,090760e-003
3,623646e+003;-9,303042e-005
3,625575e+003;-8,302597e-005
3,627503e+003;-1,604398e-003
3,629432e+003;-2,523729e-003
3,631360e+003;-1,815986e-003
3,633289e+003;-1,313334e-003
3,635217e+003;5,271946e-005
3,637146e+003;3,138928e-004
3,639074e+003;-1,040817e-003
3,641003e+003;-1,698637e-003
3,642931e+003;-1,553524e-003
3,644860e+003;-1,662198e-003
3,646788e+003;-3,792712e-003
3,648717e+003;-6,384783e-003
3,650645e+003;-3,435891e-003
3,652574e+003;-9,382695e-004
3,654502e+003;-7,274116e-004
3,656431e+003;-1,817635e-003
3,658359e+003;-1,707185e-003
3,660288e+003;-2,287602e-003
3,662216e+003;-2,467790e-003
3,664145e+003;-1,851158e-003
3,666073e+003;-1,289053e-003
3,668002e+003;-9,158194e-004
3,669930e+003;-1,483624e-003
3,671859e+003;-2,106251e-003
3,673787e+003;-2,385911e-003
3,675716e+003;-2,135564e-003
3,677644e+003;-1,249376e-003
3,679573e+003;-1,216170e-003
3,681501e+003;-1,304811e-003
3,683430e+003;-1,408693e-003
3,685358e+003;-1,547515e-003
3,687287e+003;-2,472765e-003
3,689215e+003;-3,262846e-003
3,691144e+003;-2,446111e-003
3,693072e+003;-1,821034e-003
3,695001e+003;-1,631995e-003
3,696929e+003;-1,182169e-003
3,698858e+003;-5,998418e-004
3,700786e+003;-7,893633e-004
3,702715e+003;-1,422432e-003
3,704643e+003;-8,649637e-004
3,706572e+003;-5,300199e-004
3,708500e+003;-7,337626e-004
3,710429e+003;-1,788598e-003
3,712357e+003;-1,372428e-003
3,714286e+003;-1,010141e-003
3,716214e+003;-5,829334e-004
3,718143e+003;-1,980964e-004
3,720071e+003;-1,121774e-004
3,722000e+003;-4,961638e-004
3,723928e+003;-1,470482e-003
3,725857e+003;-1,859604e-003
3,727785e+003;-1,855777e-003
3,729714e+003;-1,573564e-003
3,731642e+003;-9,247136e-004
3,733571e+003;7,588358e-005
3,735499e+003;-1,608459e-003
3,737427e+003;-2,754262e-003
3,739356e+003;-1,806846e-003
3,741285e+003;-1,798366e-003
3,743213e+003;-2,767234e-003
3,745142e+003;-2,553936e-003
3,747070e+003;-3,134901e-003
3,748999e+003;-5,702407e-003
3,750927e+003;-7,043007e-003
3,752855e+003;-3,669982e-003
3,754784e+003;-1,659690e-003
3,756713e+003;-1,280563e-003
3,758641e+003;-1,965728e-003
3,760570e+003;-2,532393e-003
3,762498e+003;-7,096149e-004
3,764427e+003;4,726159e-004
3,766355e+003;1,063402e-004
3,768283e+003;-6,538055e-004
3,770212e+003;-2,073376e-003
3,772141e+003;-2,254179e-003
3,774069e+003;-2,027041e-003
3,775998e+003;-1,720188e-003
3,777926e+003;-1,744478e-003
3,779854e+003;-1,156887e-004
3,781783e+003;1,156532e-004
3,783711e+003;-9,347649e-004
3,785640e+003;-1,230840e-003
3,787569e+003;-1,133890e-003
3,789497e+003;-5,347853e-004
3,791426e+003;-9,553294e-004
3,793354e+003;-1,750715e-003
3,795282e+003;-1,726426e-003
3,797211e+003;-1,590467e-003
3,799139e+003;-1,751078e-003
3,801068e+003;-2,174502e-003
3,802997e+003;-1,216897e-003
3,804925e+003;-1,513045e-003
3,806854e+003;-1,938515e-003
3,808782e+003;-5,361753e-004
3,810710e+003;-1,732896e-004
3,812639e+003;-9,776452e-004
3,814567e+003;-1,460112e-003
3,816496e+003;-1,392873e-003
3,818425e+003;-1,105269e-003
3,820353e+003;-5,946469e-004
3,822281e+003;-1,321295e-003
3,824210e+003;-1,879333e-003
3,826138e+003;-9,631318e-004
3,828067e+003;-9,525522e-004
3,829995e+003;-1,244321e-003
3,831924e+003;-1,982681e-003
3,833853e+003;-1,957119e-003
3,835781e+003;-1,529851e-003
3,837709e+003;-1,707845e-003
3,839638e+003;-1,874846e-003
3,841566e+003;-1,493629e-003
3,843495e+003;-1,281951e-003
3,845423e+003;-1,280960e-003
3,847352e+003;-4,887502e-004
3,849281e+003;-2,700578e-004
3,851209e+003;-5,057616e-004
3,853137e+003;-6,980037e-004
3,855066e+003;-2,416127e-003
3,856994e+003;-8,117538e-004
3,858923e+003;-3,091296e-005
3,860851e+003;-5,775067e-004
3,862780e+003;-1,281686e-003
3,864708e+003;-1,261402e-003
3,866637e+003;6,809579e-005
3,868565e+003;-4,748493e-004
3,870494e+003;-1,460575e-003
3,872422e+003;-2,736341e-004
3,874351e+003;-3,565747e-004
3,876279e+003;-1,136269e-003
3,878208e+003;-1,236722e-003
3,880136e+003;-4,030211e-004
3,882065e+003;-5,308141e-004
3,883993e+003;-1,212371e-003
3,885922e+003;-1,470316e-003
3,887850e+003;-1,205993e-003
3,889779e+003;-1,525724e-003
3,891707e+003;-1,592118e-003
3,893636e+003;-1,019166e-003
3,895564e+003;-7,259230e-004
3,897493e+003;-1,025050e-003
3,899421e+003;-1,836146e-003
3,901350e+003;-2,250488e-003
3,903278e+003;-2,910988e-003
3,905207e+003;-3,006358e-003
3,907135e+003;-1,617141e-003
3,909064e+003;-9,578090e-004
3,910992e+003;-9,681900e-004
3,912921e+003;-1,345013e-003
3,914849e+003;-1,124173e-003
3,916778e+003;-1,767215e-003
3,918706e+003;-1,912751e-003
3,920635e+003;-6,159555e-004
3,922563e+003;-7,542706e-004
3,924492e+003;-1,277656e-003
3,926420e+003;-1,274518e-003
3,928349e+003;-1,091785e-003
3,930277e+003;-1,719660e-003
3,932206e+003;-2,099129e-003
3,934134e+003;-2,020973e-003
3,936063e+003;-1,997622e-003
3,937991e+003;-2,049368e-003
3,939920e+003;-2,104603e-003
3,941848e+003;-1,642624e-003
3,943777e+003;-1,887746e-003
3,945705e+003;-1,758800e-003
3,947634e+003;-1,333881e-003
3,949562e+003;-1,188514e-003
3,951491e+003;-1,293348e-003
3,953419e+003;-1,343460e-003
3,955348e+003;-1,200442e-003
3,957276e+003;-9,236225e-004
3,959205e+003;-1,469425e-003
3,961133e+003;-1,150710e-003
3,963062e+003;-5,522582e-004
3,964990e+003;-8,742226e-004
3,966919e+003;-9,390960e-004
3,968847e+003;-7,439837e-004
3,970776e+003;-1,218648e-003
3,972704e+003;-1,230312e-003
3,974633e+003;-6,566838e-004
3,976561e+003;-8,216753e-004
3,978490e+003;-1,153123e-003
3,980418e+003;-1,101865e-003
3,982347e+003;-4,147064e-004
3,984275e+003;-6,910236e-004
3,986204e+003;-1,379298e-003
3,988132e+003;-1,522884e-003
3,990061e+003;-1,556231e-003
3,991989e+003;-1,368332e-003
3,993918e+003;-1,748438e-003
3,995846e+003;-1,593372e-003
3,997775e+003;-1,196808e-003
3,999703e+003;-2,181062e-003
4,001632e+003;-2,410031e-003
4,003560e+003;-2,160688e-003
4,005489e+003;-1,756259e-003
4,007417e+003;-1,132072e-003
4,009346e+003;-1,227801e-003
4,011274e+003;-1,886459e-003
4,013203e+003;-1,746359e-003
4,015131e+003;-1,156097e-003
4,017060e+003;-1,042206e-003
4,018988e+003;-6,066579e-004
4,020917e+003;-8,911528e-004
4,022845e+003;-1,954711e-003
4,024774e+003;-2,003460e-003
4,026702e+003;-1,253142e-003
4,028631e+003;-1,309370e-003
4,030559e+003;-1,304977e-003
4,032488e+003;-8,398643e-004
4,034416e+003;-2,244251e-004
4,036345e+003;-7,110374e-004
4,038273e+003;-1,109401e-003
4,040202e+003;-7,825170e-004
4,042130e+003;-4,009356e-004
4,044059e+003;-1,193834e-003
4,045987e+003;-1,945277e-003
4,047916e+003;-1,670351e-003
4,049844e+003;-1,186498e-003
4,051773e+003;-1,468302e-003
4,053701e+003;-1,688372e-003
4,055630e+003;-1,849145e-003
4,057558e+003;-2,081982e-003
4,059487e+003;-1,832846e-003
4,061415e+003;-1,650777e-003
4,063344e+003;-1,925947e-003
4,065272e+003;-1,842217e-003
4,067201e+003;-1,912751e-003
4,069129e+003;-1,736690e-003
4,071058e+003;-9,070243e-004
4,072986e+003;-2,329260e-005
4,074915e+003;-5,751572e-004
4,076843e+003;-1,508917e-003
4,078771e+003;-1,682233e-003
4,080700e+003;-1,089306e-003
4,082629e+003;-1,159864e-003
4,084557e+003;-1,392609e-003
4,086486e+003;-1,563495e-003
4,088414e+003;-1,364633e-003
4,090343e+003;-1,422696e-003
4,092271e+003;-1,452319e-003
4,094199e+003;-1,370050e-003
4,096128e+003;-1,546657e-003
4,098057e+003;-1,268901e-003
4,099985e+003;-1,116737e-003
4,101914e+003;-1,745501e-003
4,103842e+003;-2,008308e-003
4,105771e+003;-1,537082e-003
4,107699e+003;-1,022174e-003
4,109627e+003;-4,841166e-004
4,111556e+003;-6,994593e-004
4,113484e+003;-1,201632e-003
4,115413e+003;-9,068589e-004
4,117341e+003;-1,202359e-003
4,119270e+003;-1,389306e-003
4,121199e+003;-1,623578e-003
4,123127e+003;-2,053655e-003
4,125056e+003;-1,915786e-003
4,126984e+003;-1,746524e-003
4,128913e+003;-1,827699e-003
4,130841e+003;-1,030372e-003
4,132770e+003;-1,311583e-003
4,134698e+003;-1,668965e-003
4,136626e+003;-5,106266e-004
4,138555e+003;-6,916522e-004
4,140483e+003;-1,242338e-003
4,142412e+003;-7,340604e-004
4,144340e+003;-7,460014e-004
4,146269e+003;-8,172438e-004
4,148197e+003;-7,844022e-004
4,150126e+003;-1,991231e-004
4,152055e+003;2,578925e-004
4,153983e+003;1,952365e-004
4,155912e+003;-1,787214e-004
4,157840e+003;-6,693217e-004
4,159769e+003;-8,022289e-004
4,161697e+003;-1,060352e-003
4,163625e+003;-1,038603e-003
4,165554e+003;-1,110755e-003
4,167482e+003;-1,109401e-003
4,169411e+003;-1,333451e-003
4,171339e+003;-9,890506e-004
4,173268e+003;-3,044282e-004
4,175196e+003;-5,548063e-004
4,177125e+003;-1,097205e-003
4,179053e+003;-1,150281e-003
4,180982e+003;-1,165151e-003
4,182911e+003;-1,544973e-003
4,184839e+003;-1,244420e-003
4,186768e+003;-7,503675e-004
4,188696e+003;-3,641561e-004
4,190625e+003;-7,306202e-004
4,192553e+003;-1,811234e-003
4,194481e+003;-1,834397e-003
4,196410e+003;-1,304415e-003
4,198338e+003;-1,359844e-003
4,200267e+003;-1,445714e-003
4,202195e+003;-1,251920e-003
4,204124e+003;-1,115382e-003
4,206052e+003;-1,263351e-003
4,207981e+003;-1,622488e-003
4,209909e+003;-1,638795e-003
4,211838e+003;-1,105269e-003
4,213767e+003;-8,412531e-004
4,215695e+003;-1,022075e-003
4,217624e+003;-1,100246e-003
4,219552e+003;-7,049176e-004
4,221480e+003;-1,275376e-003
4,223409e+003;-1,834496e-003
4,225337e+003;-1,035958e-003
4,227266e+003;-7,538075e-004
4,229194e+003;-5,296558e-004
4,231123e+003;-4,207972e-004
4,233051e+003;-9,376832e-006
4,234980e+003;-7,050830e-004
4,236908e+003;-2,044322e-003
4,238837e+003;-1,201367e-003
4,240765e+003;-3,255855e-004
4,242694e+003;-2,899917e-004
4,244623e+003;-7,990539e-004
4,246551e+003;-1,765466e-003
4,248479e+003;-2,467526e-003
4,250408e+003;-2,264167e-003
4,252336e+003;-1,885733e-003
4,254265e+003;-1,297213e-003
4,256193e+003;-4,457222e-004
4,258122e+003;-5,073171e-004
4,260050e+003;-1,085175e-003
4,261979e+003;-1,174933e-003
4,263907e+003;-7,667734e-004
4,265836e+003;-4,545930e-004
4,267764e+003;-7,693201e-004
4,269693e+003;-1,906187e-003
4,271621e+003;-1,721872e-003
4,273550e+003;-9,878274e-004
4,275479e+003;-8,680059e-004
4,277407e+003;-9,932821e-004
4,279335e+003;-1,184218e-003
4,281264e+003;-9,726862e-004
4,283192e+003;-6,023234e-004
4,285121e+003;-2,822765e-004
4,287049e+003;5,509045e-004
4,288978e+003;5,855417e-004
4,290906e+003;-5,132742e-004
4,292835e+003;-1,423918e-003
4,294763e+003;-1,426626e-003
4,296692e+003;-1,663717e-003
4,298620e+003;-1,493134e-003
4,300549e+003;-1,751738e-003
4,302477e+003;-2,198964e-003
4,304406e+003;-1,863728e-003
4,306334e+003;-1,686293e-003
4,308263e+003;-4,767028e-004
4,310191e+003;2,833053e-005
4,312120e+003;-4,633311e-004
4,314048e+003;-7,463652e-004
4,315977e+003;-7,231114e-004
4,317905e+003;-7,273454e-004
4,319834e+003;-8,266691e-004
4,321762e+003;-1,035661e-003
4,323691e+003;-6,557244e-004
4,325619e+003;-7,648880e-004
4,327548e+003;-8,864243e-004
4,329476e+003;-6,823231e-004
4,331405e+003;-4,723008e-004
4,333333e+003;-5,828672e-004
4,335262e+003;-7,518891e-004
4,337190e+003;-1,826742e-003
4,339119e+003;-1,660152e-003
4,341047e+003;-1,667050e-003
4,342976e+003;-1,389801e-003
4,344904e+003;-8,200218e-004
4,346833e+003;-1,278284e-003
4,348761e+003;-1,754015e-003
4,350690e+003;-1,061179e-003
4,352618e+003;-5,179406e-004
4,354547e+003;-9,283175e-004
4,356475e+003;-8,190296e-004
4,358404e+003;-1,032256e-003
4,360332e+003;-1,156328e-003
4,362261e+003;-1,044652e-003
4,364189e+003;-9,579082e-004
4,366118e+003;-1,776059e-003
4,368046e+003;-1,920735e-003
4,369975e+003;-1,439341e-003
4,371903e+003;-1,239926e-003
4,373832e+003;-1,691904e-003
4,375760e+003;-1,989806e-003
4,377688e+003;-1,243891e-003
4,379617e+003;-7,823516e-004
4,381546e+003;-6,756736e-004
4,383474e+003;-3,640236e-004
4,385403e+003;-4,254645e-004
4,387331e+003;-1,685006e-003
4,389260e+003;-1,675269e-003
4,391188e+003;-1,007299e-003
4,393117e+003;-4,658135e-004
4,395045e+003;-3,878926e-004
4,396974e+003;-1,046404e-003
4,398902e+003;-1,302763e-003
4,400831e+003;-1,331536e-003
4,402759e+003;-1,847001e-003
4,404688e+003;-9,858108e-004
4,406616e+003;-3,412459e-004
4,408544e+003;-1,916248e-003
4,410473e+003;-3,368398e-003
4,412402e+003;-3,630423e-003
4,414330e+003;-2,334567e-003
4,416259e+003;-6,876493e-004
4,418187e+003;-4,875256e-004
4,420116e+003;-8,759091e-004
4,422044e+003;-1,863101e-003
4,423973e+003;-2,260673e-003
4,425901e+003;-1,075986e-003
4,427830e+003;-8,159870e-004
4,429758e+003;-8,500827e-004
4,431687e+003;-1,231964e-003
4,433615e+003;-1,763486e-003
4,435543e+003;-1,338968e-003
4,437472e+003;-5,267767e-004
4,439400e+003;-5,494785e-004
4,441329e+003;-8,746856e-004
4,443258e+003;-8,146311e-004
4,445186e+003;-6,957591e-005
4,447115e+003;6,196110e-006
4,449043e+003;-4,974545e-004
4,450972e+003;-1,027199e-003
4,452900e+003;-1,510007e-003
4,454829e+003;-2,132003e-003
4,456757e+003;-1,847331e-003
4,458686e+003;-1,262525e-003
4,460614e+003;-1,230477e-003
4,462542e+003;-1,427187e-003
4,464471e+003;-8,635748e-004
4,466399e+003;-2,423410e-004
4,468328e+003;-9,089420e-004
4,470256e+003;-1,346070e-003
4,472185e+003;-1,352709e-003
4,474113e+003;-4,683952e-004
4,476042e+003;-2,053825e-004
4,477971e+003;-1,543124e-003
4,479899e+003;-2,476323e-003
4,481828e+003;-2,640822e-003
4,483756e+003;-1,909453e-003
4,485685e+003;-1,391353e-003
4,487613e+003;-3,736906e-004
4,489542e+003;-1,557683e-004
4,491470e+003;-5,305824e-004
4,493398e+003;-6,739533e-004
4,495327e+003;-5,975918e-004
4,497255e+003;-2,385658e-004
4,499184e+003;-1,447385e-004
