5,245513e+002;3,417098e-001
5,264797e+002;4,071921e-001
5,284083e+002;1,620235e-001
5,303367e+002;6,370083e-002
5,322653e+002;1,400895e-002
5,341937e+002;-7,647466e-003
5,361223e+002;2,378564e-002
5,380507e+002;8,032590e-002
5,399792e+002;4,485126e-002
5,419077e+002;-1,467529e-002
5,438362e+002;1,116551e-002
5,457647e+002;6,565538e-002
5,476932e+002;8,999772e-002
5,496217e+002;6,139461e-002
5,515502e+002;4,741392e-002
5,534787e+002;4,002872e-002
5,554072e+002;3,416048e-002
5,573357e+002;2,068904e-002
5,592642e+002;2,029390e-003
5,611927e+002;1,550675e-002
5,631212e+002;4,652825e-002
5,650497e+002;4,283824e-002
5,669782e+002;2,601964e-002
5,689067e+002;3,564994e-002
5,708352e+002;4,374478e-002
5,727637e+002;4,004111e-002
5,746922e+002;3,090319e-002
5,766207e+002;4,844223e-002
5,785492e+002;5,152143e-002
5,804777e+002;3,390527e-002
5,824062e+002;1,386268e-002
5,843347e+002;7,046045e-003
5,862632e+002;1,382228e-002
5,881917e+002;1,867806e-002
5,901202e+002;2,467041e-002
5,920486e+002;2,462096e-002
5,939772e+002;2,191713e-002
5,959056e+002;2,420517e-002
5,978342e+002;1,857136e-002
5,997626e+002;1,829224e-002
6,016912e+002;1,615448e-002
6,036196e+002;1,456607e-002
6,055482e+002;1,187295e-002
6,074766e+002;1,891797e-002
6,094052e+002;2,570303e-002
6,113336e+002;1,829559e-002
6,132621e+002;1,944588e-002
6,151906e+002;2,204473e-002
6,171191e+002;2,670119e-002
6,190476e+002;3,085609e-002
6,209761e+002;2,140915e-002
6,229046e+002;1,903130e-002
6,248331e+002;2,407802e-002
6,267616e+002;2,645704e-002
6,286901e+002;2,585654e-002
6,306186e+002;2,494005e-002
6,325471e+002;2,460522e-002
6,344756e+002;2,333169e-002
6,364041e+002;2,307129e-002
6,383326e+002;2,488710e-002
6,402611e+002;2,600314e-002
6,421896e+002;2,446309e-002
6,441181e+002;2,264895e-002
6,460466e+002;2,176950e-002
6,479751e+002;2,066176e-002
6,499036e+002;1,892898e-002
6,518321e+002;1,897934e-002
6,537606e+002;2,146161e-002
6,556891e+002;2,388042e-002
6,576176e+002;2,406225e-002
6,595461e+002;2,326670e-002
6,614745e+002;2,382907e-002
6,634031e+002;2,511302e-002
6,653315e+002;2,532792e-002
6,672601e+002;2,435622e-002
6,691885e+002;2,568250e-002
6,711171e+002;2,589178e-002
6,730455e+002;2,527784e-002
6,749741e+002;2,633046e-002
6,769025e+002;2,763211e-002
6,788311e+002;2,735529e-002
6,807595e+002;2,728779e-002
6,826880e+002;2,654664e-002
6,846165e+002;2,576392e-002
6,865450e+002;2,691127e-002
6,884735e+002;2,739291e-002
6,904020e+002;2,715158e-002
6,923305e+002;2,734506e-002
6,942590e+002;2,769882e-002
6,961875e+002;2,829296e-002
6,981160e+002;2,828157e-002
7,000445e+002;2,875995e-002
7,019730e+002;2,928844e-002
7,039015e+002;3,024362e-002
7,058300e+002;3,235162e-002
7,077585e+002;3,295524e-002
7,096870e+002;3,103477e-002
7,116155e+002;2,743180e-002
7,135440e+002;2,340616e-002
7,154725e+002;2,169042e-002
7,174010e+002;2,065342e-002
7,193295e+002;1,917998e-002
7,212580e+002;1,939744e-002
7,231865e+002;2,226049e-002
7,251150e+002;2,403799e-002
7,270435e+002;2,491552e-002
7,289720e+002;2,582546e-002
7,309005e+002;2,622588e-002
7,328290e+002;2,655661e-002
7,347574e+002;2,731027e-002
7,366860e+002;2,779722e-002
7,386144e+002;2,807114e-002
7,405430e+002;2,733920e-002
7,424714e+002;2,607808e-002
7,444000e+002;2,407311e-002
7,463284e+002;2,188409e-002
7,482570e+002;2,232296e-002
7,501854e+002;2,392023e-002
7,521140e+002;2,321643e-002
7,540424e+002;2,234064e-002
7,559709e+002;2,155937e-002
7,578994e+002;2,112555e-002
7,598279e+002;2,039227e-002
7,617564e+002;2,002907e-002
7,636849e+002;2,144845e-002
7,656134e+002;2,422230e-002
7,675419e+002;2,568837e-002
7,694704e+002;2,543605e-002
7,713989e+002;2,336976e-002
7,733274e+002;1,987157e-002
7,752559e+002;1,679818e-002
7,771844e+002;1,420179e-002
7,791129e+002;1,224724e-002
7,810414e+002;1,062271e-002
7,829699e+002;1,006750e-002
7,848984e+002;1,054812e-002
7,868269e+002;1,156087e-002
7,887554e+002;1,271363e-002
7,906839e+002;1,365314e-002
7,926124e+002;1,423613e-002
7,945409e+002;1,478055e-002
7,964694e+002;1,566082e-002
7,983979e+002;1,630861e-002
8,003264e+002;1,625033e-002
8,022549e+002;1,628779e-002
8,041833e+002;1,670286e-002
8,061119e+002;1,658945e-002
8,080403e+002;1,620466e-002
8,099689e+002;1,703885e-002
8,118973e+002;1,824369e-002
8,138259e+002;1,849553e-002
8,157543e+002;1,826857e-002
8,176829e+002;1,739548e-002
8,196113e+002;1,732017e-002
8,215399e+002;1,770188e-002
8,234683e+002;1,774651e-002
8,253969e+002;1,815312e-002
8,273253e+002;1,916297e-002
8,292538e+002;2,010173e-002
8,311823e+002;2,026442e-002
8,331108e+002;1,877537e-002
8,350393e+002;1,679532e-002
8,369678e+002;1,703596e-002
8,388963e+002;1,941667e-002
8,408248e+002;2,137010e-002
8,427533e+002;2,299191e-002
8,446818e+002;2,350304e-002
8,466103e+002;2,222457e-002
8,485388e+002;2,086408e-002
8,504673e+002;1,942685e-002
8,523958e+002;1,827503e-002
8,543243e+002;1,810728e-002
8,562528e+002;1,731044e-002
8,581813e+002;1,636905e-002
8,601098e+002;1,549597e-002
8,620383e+002;1,550936e-002
8,639668e+002;1,535332e-002
8,658953e+002;1,524527e-002
8,678238e+002;1,579367e-002
8,697523e+002;2,243644e-002
8,716808e+002;2,624292e-002
8,736093e+002;1,980415e-002
8,755378e+002;1,700098e-002
8,774662e+002;1,675978e-002
8,793948e+002;1,681065e-002
8,813232e+002;1,656780e-002
8,832518e+002;1,764901e-002
8,851802e+002;1,796370e-002
8,871088e+002;1,757738e-002
8,890372e+002;1,742377e-002
8,909658e+002;1,797272e-002
8,928942e+002;1,875160e-002
8,948228e+002;1,985104e-002
8,967512e+002;1,945062e-002
8,986797e+002;1,852637e-002
9,006082e+002;1,840319e-002
9,025367e+002;1,890825e-002
9,044652e+002;1,951345e-002
9,063937e+002;1,996343e-002
9,083222e+002;1,985041e-002
9,102507e+002;1,992801e-002
9,121792e+002;2,001370e-002
9,141077e+002;2,057247e-002
9,160362e+002;2,096481e-002
9,179647e+002;2,092913e-002
9,198932e+002;2,108757e-002
9,218217e+002;2,139495e-002
9,237502e+002;2,098414e-002
9,256787e+002;2,089648e-002
9,276072e+002;2,076765e-002
9,295357e+002;2,060273e-002
9,314642e+002;2,076209e-002
9,333927e+002;2,116834e-002
9,353212e+002;2,113453e-002
9,372497e+002;2,109623e-002
9,391782e+002;2,134674e-002
9,411067e+002;2,163546e-002
9,430352e+002;2,145367e-002
9,449637e+002;2,145997e-002
9,468922e+002;2,239398e-002
9,488207e+002;2,310110e-002
9,507491e+002;2,308324e-002
9,526777e+002;2,386320e-002
9,546061e+002;2,430211e-002
9,565347e+002;2,456889e-002
9,584631e+002;2,503053e-002
9,603917e+002;2,509943e-002
9,623201e+002;2,505303e-002
9,642487e+002;2,554557e-002
9,661771e+002;2,719867e-002
9,681057e+002;2,896044e-002
9,700341e+002;2,995661e-002
9,719626e+002;3,043897e-002
9,738911e+002;2,933257e-002
9,758196e+002;2,653674e-002
9,777481e+002;2,361599e-002
9,796766e+002;2,190524e-002
9,816051e+002;2,143195e-002
9,835336e+002;2,118455e-002
9,854621e+002;2,064981e-002
9,873906e+002;2,017548e-002
9,893191e+002;2,029035e-002
9,912476e+002;2,030525e-002
9,931761e+002;1,985145e-002
9,951046e+002;1,954011e-002
9,970331e+002;1,925825e-002
9,989616e+002;1,899433e-002
1,000890e+003;1,815938e-002
1,002819e+003;1,738238e-002
1,004747e+003;1,630210e-002
1,006676e+003;1,512994e-002
1,008604e+003;1,444654e-002
1,010533e+003;1,428807e-002
1,012461e+003;1,441482e-002
1,014390e+003;1,490813e-002
1,016318e+003;1,559731e-002
1,018247e+003;1,613034e-002
1,020175e+003;1,645088e-002
1,022104e+003;1,674773e-002
1,024032e+003;1,734138e-002
1,025961e+003;1,748216e-002
1,027889e+003;1,635884e-002
1,029818e+003;1,450673e-002
1,031746e+003;1,473098e-002
1,033675e+003;1,767451e-002
1,035603e+003;2,118087e-002
1,037531e+003;2,363160e-002
1,039460e+003;2,503884e-002
1,041389e+003;2,669770e-002
1,043317e+003;2,872458e-002
1,045245e+003;3,033243e-002
1,047174e+003;3,115487e-002
1,049103e+003;3,121581e-002
1,051031e+003;3,115188e-002
1,052959e+003;3,098136e-002
1,054888e+003;3,006738e-002
1,056817e+003;2,959451e-002
1,058745e+003;3,031993e-002
1,060673e+003;3,149518e-002
1,062602e+003;3,182527e-002
1,064531e+003;3,174795e-002
1,066459e+003;3,139166e-002
1,068387e+003;3,094119e-002
1,070316e+003;3,003653e-002
1,072245e+003;2,778952e-002
1,074173e+003;2,595214e-002
1,076101e+003;2,611552e-002
1,078030e+003;2,685815e-002
1,079958e+003;2,715557e-002
1,081887e+003;2,613600e-002
1,083815e+003;2,448591e-002
1,085744e+003;2,320521e-002
1,087672e+003;2,214869e-002
1,089601e+003;2,214503e-002
1,091529e+003;2,250299e-002
1,093458e+003;2,316704e-002
1,095386e+003;2,418793e-002
1,097315e+003;2,512285e-002
1,099243e+003;2,582117e-002
1,101172e+003;2,637296e-002
1,103100e+003;2,708708e-002
1,105029e+003;2,827184e-002
1,106957e+003;2,957525e-002
1,108886e+003;3,011092e-002
1,110814e+003;3,061983e-002
1,112743e+003;3,115305e-002
1,114671e+003;3,082243e-002
1,116600e+003;3,040375e-002
1,118528e+003;3,152895e-002
1,120457e+003;3,258250e-002
1,122385e+003;3,276257e-002
1,124314e+003;3,145431e-002
1,126242e+003;3,146237e-002
1,128171e+003;3,202701e-002
1,130099e+003;3,105538e-002
1,132028e+003;3,009771e-002
1,133956e+003;2,925909e-002
1,135885e+003;2,895488e-002
1,137813e+003;2,930262e-002
1,139742e+003;2,958735e-002
1,141670e+003;3,024038e-002
1,143599e+003;3,084370e-002
1,145527e+003;2,959604e-002
1,147456e+003;2,912872e-002
1,149384e+003;3,004611e-002
1,151313e+003;2,990006e-002
1,153241e+003;2,936256e-002
1,155170e+003;2,768455e-002
1,157098e+003;2,537896e-002
1,159027e+003;2,342533e-002
1,160955e+003;2,155547e-002
1,162884e+003;2,073686e-002
1,164812e+003;2,040456e-002
1,166741e+003;1,910016e-002
1,168669e+003;1,829946e-002
1,170598e+003;1,792061e-002
1,172526e+003;1,751462e-002
1,174455e+003;1,743056e-002
1,176383e+003;1,781358e-002
1,178312e+003;1,777854e-002
1,180240e+003;1,773170e-002
1,182169e+003;1,739779e-002
1,184097e+003;1,677228e-002
1,186026e+003;1,659200e-002
1,187954e+003;1,671484e-002
1,189883e+003;1,750876e-002
1,191811e+003;1,886167e-002
1,193740e+003;1,927276e-002
1,195668e+003;1,944827e-002
1,197597e+003;1,952298e-002
1,199525e+003;1,947592e-002
1,201454e+003;1,855597e-002
1,203382e+003;1,707565e-002
1,205311e+003;1,592313e-002
1,207239e+003;1,485128e-002
1,209168e+003;1,334285e-002
1,211096e+003;1,160208e-002
1,213025e+003;1,017237e-002
1,214953e+003;8,787415e-003
1,216882e+003;7,953551e-003
1,218810e+003;7,670240e-003
1,220739e+003;7,626030e-003
1,222667e+003;7,655638e-003
1,224596e+003;7,644712e-003
1,226524e+003;7,747881e-003
1,228453e+003;8,250013e-003
1,230381e+003;9,526041e-003
1,232310e+003;1,052948e-002
1,234238e+003;1,121412e-002
1,236167e+003;1,182126e-002
1,238095e+003;1,290784e-002
1,240024e+003;1,427232e-002
1,241952e+003;1,542407e-002
1,243881e+003;1,650846e-002
1,245809e+003;1,748502e-002
1,247738e+003;1,829777e-002
1,249666e+003;1,821487e-002
1,251595e+003;1,804455e-002
1,253523e+003;1,744856e-002
1,255452e+003;1,665021e-002
1,257380e+003;1,550960e-002
1,259309e+003;1,442438e-002
1,261237e+003;1,355300e-002
1,263166e+003;1,300356e-002
1,265094e+003;1,230120e-002
1,267023e+003;1,201105e-002
1,268951e+003;1,215002e-002
1,270880e+003;1,215468e-002
1,272808e+003;1,270830e-002
1,274737e+003;1,347889e-002
1,276665e+003;1,374033e-002
1,278594e+003;1,346372e-002
1,280522e+003;1,294788e-002
1,282451e+003;1,234363e-002
1,284379e+003;1,164843e-002
1,286308e+003;1,093582e-002
1,288236e+003;1,053783e-002
1,290165e+003;1,022854e-002
1,292093e+003;9,878116e-003
1,294022e+003;9,860863e-003
1,295950e+003;9,819580e-003
1,297879e+003;9,699281e-003
1,299807e+003;9,462779e-003
1,301736e+003;9,036608e-003
1,303664e+003;8,467306e-003
1,305593e+003;7,910829e-003
1,307521e+003;7,327600e-003
1,309450e+003;6,750403e-003
1,311378e+003;6,070504e-003
1,313307e+003;5,241432e-003
1,315235e+003;5,039087e-003
1,317164e+003;4,968164e-003
1,319092e+003;4,438811e-003
1,321021e+003;4,031852e-003
1,322949e+003;4,064360e-003
1,324878e+003;4,034327e-003
1,326806e+003;3,770339e-003
1,328735e+003;3,870787e-003
1,330663e+003;4,194182e-003
1,332592e+003;4,093091e-003
1,334520e+003;3,839798e-003
1,336449e+003;3,991689e-003
1,338377e+003;4,116371e-003
1,340306e+003;4,138783e-003
1,342234e+003;4,102423e-003
1,344163e+003;4,047002e-003
1,346091e+003;4,217401e-003
1,348020e+003;4,407614e-003
1,349948e+003;4,604106e-003
1,351877e+003;4,961829e-003
1,353805e+003;5,277888e-003
1,355734e+003;5,449407e-003
1,357662e+003;5,561084e-003
1,359591e+003;5,784692e-003
1,361519e+003;6,112406e-003
1,363448e+003;6,325707e-003
1,365376e+003;6,888403e-003
1,367305e+003;7,203576e-003
1,369233e+003;7,287299e-003
1,371161e+003;7,296565e-003
1,373090e+003;7,293836e-003
1,375019e+003;7,612137e-003
1,376947e+003;8,623866e-003
1,378875e+003;9,540301e-003
1,380804e+003;1,004349e-002
1,382733e+003;1,032340e-002
1,384661e+003;1,025195e-002
1,386589e+003;1,008453e-002
1,388518e+003;1,020568e-002
1,390447e+003;1,043987e-002
1,392375e+003;1,022651e-002
1,394303e+003;9,118824e-003
1,396232e+003;7,777261e-003
1,398161e+003;7,445659e-003
1,400089e+003;6,882175e-003
1,402017e+003;6,176761e-003
1,403946e+003;5,592129e-003
1,405875e+003;5,644525e-003
1,407803e+003;5,729123e-003
1,409731e+003;5,444744e-003
1,411660e+003;5,173157e-003
1,413589e+003;5,670373e-003
1,415517e+003;6,453684e-003
1,417445e+003;7,259334e-003
1,419374e+003;8,947067e-003
1,421302e+003;1,071423e-002
1,423231e+003;1,222407e-002
1,425159e+003;1,407883e-002
1,427088e+003;1,538205e-002
1,429016e+003;1,601330e-002
1,430945e+003;1,576753e-002
1,432873e+003;1,598810e-002
1,434802e+003;1,620524e-002
1,436730e+003;1,708269e-002
1,438659e+003;1,735589e-002
1,440587e+003;1,752197e-002
1,442516e+003;1,735286e-002
1,444444e+003;1,623527e-002
1,446373e+003;1,467923e-002
1,448301e+003;1,338184e-002
1,450230e+003;1,307721e-002
1,452158e+003;1,290186e-002
1,454087e+003;1,273396e-002
1,456015e+003;1,216252e-002
1,457944e+003;1,131423e-002
1,459872e+003;1,133253e-002
1,461801e+003;1,117540e-002
1,463729e+003;1,099335e-002
1,465658e+003;1,083817e-002
1,467586e+003;1,062291e-002
1,469515e+003;1,050351e-002
1,471443e+003;1,028995e-002
1,473372e+003;9,836459e-003
1,475300e+003;9,820835e-003
1,477229e+003;9,426749e-003
1,479157e+003;9,008901e-003
1,481086e+003;8,209761e-003
1,483014e+003;7,394260e-003
1,484943e+003;7,075984e-003
1,486871e+003;6,523876e-003
1,488800e+003;6,142247e-003
1,490728e+003;6,362254e-003
1,492657e+003;6,507529e-003
1,494585e+003;6,176560e-003
1,496514e+003;5,081929e-003
1,498442e+003;3,887268e-003
1,500371e+003;3,543590e-003
1,502299e+003;3,150285e-003
1,504228e+003;2,406321e-003
1,506156e+003;1,520662e-003
1,508085e+003;1,428868e-003
1,510013e+003;1,311336e-003
1,511942e+003;1,158319e-003
1,513870e+003;1,086930e-003
1,515799e+003;8,537751e-004
1,517727e+003;8,359475e-004
1,519656e+003;9,877547e-004
1,521584e+003;1,228358e-003
1,523513e+003;1,292957e-003
1,525441e+003;1,536722e-003
1,527370e+003;1,647863e-003
1,529298e+003;1,291794e-003
1,531227e+003;9,739730e-004
1,533155e+003;8,816633e-004
1,535084e+003;9,071960e-004
1,537012e+003;1,011932e-003
1,538941e+003;1,631666e-003
1,540869e+003;7,064287e-004
1,542798e+003;1,020534e-003
1,544726e+003;1,420424e-003
1,546655e+003;1,228324e-003
1,548583e+003;1,376180e-003
1,550512e+003;1,553382e-003
1,552440e+003;1,238791e-003
1,554369e+003;8,013567e-004
1,556297e+003;9,544468e-004
1,558226e+003;2,143420e-003
1,560154e+003;1,895887e-003
1,562083e+003;1,371427e-003
1,564011e+003;1,330512e-003
1,565940e+003;1,337359e-003
1,567868e+003;1,288604e-003
1,569797e+003;1,458156e-003
1,571725e+003;1,631799e-003
1,573654e+003;1,592023e-003
1,575582e+003;1,505633e-003
1,577511e+003;1,526281e-003
1,579439e+003;1,429998e-003
1,581368e+003;1,665990e-003
1,583296e+003;1,855488e-003
1,585225e+003;1,847136e-003
1,587153e+003;1,950102e-003
1,589082e+003;1,863242e-003
1,591010e+003;1,707901e-003
1,592939e+003;2,037113e-003
1,594867e+003;2,351949e-003
1,596796e+003;2,412751e-003
1,598724e+003;2,273302e-003
1,600653e+003;2,339423e-003
1,602581e+003;2,415983e-003
1,604510e+003;2,691618e-003
1,606438e+003;3,085876e-003
1,608367e+003;2,785547e-003
1,610295e+003;2,563977e-003
1,612224e+003;2,796385e-003
1,614152e+003;3,019874e-003
1,616081e+003;3,213002e-003
1,618009e+003;3,207561e-003
1,619938e+003;3,533736e-003
1,621866e+003;3,721578e-003
1,623795e+003;3,961561e-003
1,625723e+003;3,896864e-003
1,627652e+003;3,999581e-003
1,629580e+003;3,990351e-003
1,631509e+003;4,067304e-003
1,633437e+003;4,236405e-003
1,635366e+003;4,029679e-003
1,637294e+003;3,902213e-003
1,639223e+003;4,315576e-003
1,641151e+003;4,536835e-003
1,643080e+003;4,991290e-003
1,645008e+003;5,359027e-003
1,646937e+003;5,441724e-003
1,648865e+003;5,359228e-003
1,650794e+003;5,565682e-003
1,652722e+003;5,915466e-003
1,654651e+003;6,400081e-003
1,656579e+003;6,630648e-003
1,658508e+003;7,099189e-003
1,660436e+003;7,298183e-003
1,662365e+003;7,696377e-003
1,664293e+003;8,344713e-003
1,666222e+003;8,953393e-003
1,668150e+003;9,512833e-003
1,670079e+003;1,081035e-002
1,672007e+003;1,157155e-002
1,673936e+003;1,220774e-002
1,675864e+003;1,328367e-002
1,677793e+003;1,427109e-002
1,679721e+003;1,506644e-002
1,681650e+003;1,623534e-002
1,683578e+003;1,737524e-002
1,685507e+003;2,044266e-002
1,687435e+003;2,123455e-002
1,689364e+003;2,314415e-002
1,691292e+003;2,559625e-002
1,693221e+003;2,834137e-002
1,695149e+003;3,163107e-002
1,697078e+003;3,643704e-002
1,699006e+003;3,816542e-002
1,700935e+003;4,421255e-002
1,702863e+003;4,652319e-002
1,704792e+003;4,887931e-002
1,706720e+003;5,044432e-002
1,708649e+003;4,990771e-002
1,710577e+003;4,659678e-002
1,712505e+003;4,487893e-002
1,714434e+003;4,142977e-002
1,716363e+003;3,746746e-002
1,718291e+003;2,696585e-002
1,720219e+003;2,249513e-002
1,722148e+003;1,973139e-002
1,724077e+003;1,631108e-002
1,726005e+003;1,421829e-002
1,727933e+003;1,370511e-002
1,729862e+003;1,314718e-002
1,731791e+003;1,187867e-002
1,733719e+003;9,916929e-003
1,735647e+003;8,381869e-003
1,737576e+003;7,907016e-003
1,739505e+003;7,698401e-003
1,741433e+003;4,122760e-003
1,743361e+003;2,719491e-003
1,745290e+003;4,422141e-003
1,747219e+003;4,557360e-003
1,749147e+003;4,388234e-003
1,751075e+003;3,473812e-003
1,753004e+003;2,431510e-003
1,754932e+003;1,689240e-003
1,756861e+003;1,544470e-003
1,758789e+003;1,762359e-003
1,760718e+003;1,667886e-003
1,762646e+003;1,533231e-003
1,764575e+003;2,117082e-003
1,766503e+003;2,371971e-003
1,768432e+003;2,466064e-003
1,770360e+003;2,423147e-003
1,772289e+003;3,870352e-003
1,774217e+003;6,230472e-003
1,776146e+003;7,835723e-003
1,778074e+003;8,768109e-003
1,780003e+003;8,878715e-003
1,781931e+003;7,921628e-003
1,783860e+003;6,488493e-003
1,785788e+003;4,573366e-003
1,787717e+003;3,722246e-003
1,789645e+003;3,724519e-003
1,791574e+003;4,102557e-003
1,793502e+003;5,200922e-003
1,795431e+003;6,202204e-003
1,797359e+003;7,557075e-003
1,799288e+003;8,287566e-003
1,801216e+003;8,535830e-003
1,803145e+003;8,466597e-003
1,805073e+003;7,874692e-003
1,807002e+003;6,885103e-003
1,808930e+003;5,831100e-003
1,810859e+003;4,301454e-003
1,812787e+003;2,655312e-003
1,814716e+003;1,610048e-003
1,816644e+003;1,151708e-003
1,818573e+003;1,252681e-003
1,820501e+003;8,157304e-004
1,822430e+003;4,801788e-004
1,824358e+003;3,369050e-004
1,826287e+003;-1,656699e-006
1,828215e+003;-3,261484e-004
1,830144e+003;1,517804e-004
1,832072e+003;3,585257e-004
1,834001e+003;-2,960511e-004
1,835929e+003;-3,052891e-004
1,837858e+003;9,642113e-006
1,839786e+003;4,019345e-005
1,841715e+003;1,632490e-004
1,843643e+003;2,559033e-004
1,845572e+003;3,947395e-004
1,847500e+003;1,322249e-004
1,849429e+003;6,620686e-005
1,851357e+003;-1,401547e-005
1,853286e+003;-2,989318e-004
1,855214e+003;-4,877904e-004
1,857143e+003;-3,814041e-004
1,859071e+003;1,496591e-004
1,861000e+003;5,796359e-004
1,862928e+003;2,918433e-004
1,864857e+003;2,096897e-004
1,866785e+003;8,793393e-004
1,868714e+003;1,027541e-003
1,870642e+003;1,900322e-004
1,872571e+003;2,309394e-004
1,874499e+003;5,379991e-004
1,876428e+003;6,671690e-004
1,878356e+003;7,739715e-004
1,880285e+003;4,604095e-004
1,882213e+003;1,900653e-004
1,884142e+003;4,901633e-004
1,886070e+003;7,644119e-004
1,887999e+003;3,775939e-004
1,889927e+003;-1,041941e-004
1,891856e+003;9,185727e-005
1,893784e+003;1,825738e-004
1,895713e+003;5,639429e-004
1,897641e+003;5,597294e-004
1,899570e+003;9,924779e-005
1,901498e+003;-4,404593e-004
1,903427e+003;-4,398966e-004
1,905355e+003;1,838997e-004
1,907284e+003;3,599517e-004
1,909212e+003;-3,122754e-004
1,911141e+003;9,308349e-005
1,913069e+003;2,126069e-004
1,914998e+003;1,615253e-004
1,916926e+003;1,183709e-004
1,918855e+003;4,817710e-004
1,920783e+003;1,664642e-004
1,922712e+003;-2,673094e-004
1,924640e+003;-8,269998e-004
1,926569e+003;-9,162162e-004
1,928497e+003;-5,112554e-004
1,930426e+003;1,196155e-005
1,932354e+003;-1,031009e-004
1,934283e+003;-4,519781e-004
1,936211e+003;2,445361e-005
1,938140e+003;4,698960e-004
1,940068e+003;7,054810e-005
1,941997e+003;-8,218738e-004
1,943925e+003;-4,927880e-004
1,945854e+003;7,390205e-004
1,947782e+003;5,464589e-004
1,949711e+003;-1,401675e-004
1,951639e+003;-6,108270e-004
1,953568e+003;-7,302563e-004
1,955496e+003;-8,342754e-004
1,957425e+003;-8,631119e-004
1,959353e+003;-3,078718e-004
1,961282e+003;2,054134e-004
1,963210e+003;-6,462623e-004
1,965139e+003;-4,613452e-004
1,967067e+003;-4,561817e-004
1,968996e+003;-3,432551e-005
1,970924e+003;7,196709e-004
1,972853e+003;1,802534e-004
1,974781e+003;4,805768e-004
1,976710e+003;4,467772e-004
1,978638e+003;6,510415e-004
1,980567e+003;2,580343e-003
1,982495e+003;2,483792e-003
1,984424e+003;1,521493e-003
1,986352e+003;1,047636e-003
1,988281e+003;8,048754e-004
1,990209e+003;2,795093e-004
1,992138e+003;2,582241e-004
1,994066e+003;1,138519e-003
1,995995e+003;1,302030e-003
1,997923e+003;5,136493e-004
1,999852e+003;-1,578881e-004
2,001780e+003;-6,104300e-004
2,003709e+003;-1,342238e-003
2,005637e+003;-1,122554e-003
2,007566e+003;-5,273393e-004
2,009494e+003;-1,493426e-004
2,011423e+003;4,410723e-004
2,013351e+003;3,166117e-004
2,015280e+003;6,096706e-006
2,017208e+003;1,201938e-004
2,019137e+003;2,116787e-004
2,021065e+003;-8,946098e-006
2,022994e+003;7,332454e-004
2,024922e+003;7,983359e-004
2,026851e+003;2,330942e-004
2,028779e+003;1,468086e-004
2,030708e+003;7,813709e-005
2,032636e+003;-3,266893e-005
2,034565e+003;5,159714e-004
2,036493e+003;1,295882e-003
2,038422e+003;1,665790e-003
2,040350e+003;1,394795e-003
2,042279e+003;1,034915e-003
2,044207e+003;9,480048e-004
2,046135e+003;1,648761e-003
2,048064e+003;2,066609e-003
2,049992e+003;3,379901e-003
2,051921e+003;2,513085e-003
2,053850e+003;6,723792e-004
2,055778e+003;-3,017794e-004
2,057707e+003;3,537505e-004
2,059635e+003;1,219552e-003
2,061563e+003;1,131974e-003
2,063492e+003;8,047426e-004
2,065420e+003;5,901573e-005
2,067349e+003;-2,344263e-004
2,069278e+003;6,514641e-005
2,071206e+003;9,507941e-004
2,073135e+003;1,164233e-003
2,075063e+003;6,812729e-004
2,076991e+003;1,936454e-004
2,078920e+003;4,270426e-004
2,080848e+003;1,295782e-003
2,082777e+003;1,656145e-003
2,084706e+003;1,866602e-003
2,086634e+003;1,619327e-003
2,088563e+003;7,645779e-004
2,090491e+003;-1,770322e-004
2,092419e+003;-7,787134e-004
2,094348e+003;-2,687002e-004
2,096276e+003;8,193821e-004
2,098205e+003;1,031228e-003
2,100134e+003;4,470757e-004
2,102062e+003;3,893338e-004
2,103990e+003;1,567854e-004
2,105919e+003;3,119696e-004
2,107847e+003;3,798490e-004
2,109776e+003;4,107581e-004
2,111704e+003;9,458464e-004
2,113633e+003;9,317339e-004
2,115562e+003;8,347267e-005
2,117490e+003;-5,758852e-004
2,119418e+003;-1,121166e-003
2,121347e+003;-9,418072e-004
2,123275e+003;-5,937866e-004
2,125204e+003;-1,124173e-003
2,127132e+003;-1,406183e-003
2,129061e+003;-2,091710e-003
2,130990e+003;-2,723049e-003
2,132918e+003;-3,218909e-003
2,134846e+003;-2,816288e-003
2,136775e+003;-1,464537e-003
2,138703e+003;-6,985661e-004
2,140632e+003;-8,958151e-004
2,142560e+003;-1,633184e-003
2,144489e+003;-1,784441e-003
2,146417e+003;-1,359943e-003
2,148346e+003;-1,529026e-003
2,150274e+003;-1,434090e-003
2,152203e+003;-5,881284e-004
2,154131e+003;-1,349141e-003
2,156060e+003;-3,476159e-003
2,157988e+003;-3,236603e-003
2,159917e+003;1,412845e-003
2,161845e+003;3,034388e-003
2,163774e+003;1,328485e-003
2,165702e+003;1,165960e-003
2,167631e+003;1,976995e-003
2,169559e+003;1,681290e-003
2,171488e+003;1,531269e-003
2,173416e+003;1,255938e-003
2,175345e+003;1,883607e-003
2,177273e+003;2,561644e-003
2,179202e+003;2,074965e-003
2,181130e+003;1,318082e-003
2,183059e+003;1,292160e-003
2,184987e+003;-8,143584e-005
2,186916e+003;-5,122483e-004
2,188844e+003;5,850440e-004
2,190773e+003;8,167927e-004
2,192701e+003;4,153681e-004
2,194630e+003;7,448953e-004
2,196558e+003;2,679382e-004
2,198487e+003;6,050181e-004
2,200415e+003;1,234339e-003
2,202344e+003;5,421460e-004
2,204272e+003;7,468203e-004
2,206201e+003;9,674642e-004
2,208129e+003;1,291757e-004
2,210058e+003;-4,418495e-004
2,211986e+003;1,576804e-004
2,213915e+003;6,785517e-004
2,215843e+003;7,484135e-004
2,217772e+003;8,785424e-004
2,219700e+003;1,085867e-003
2,221629e+003;1,104535e-003
2,223557e+003;9,758659e-004
2,225486e+003;8,082282e-004
2,227414e+003;9,350877e-004
2,229343e+003;1,006386e-003
2,231271e+003;2,817638e-004
2,233200e+003;1,718008e-004
2,235128e+003;2,318013e-004
2,237057e+003;3,144896e-004
2,238985e+003;5,029345e-004
2,240914e+003;1,869162e-004
2,242842e+003;5,588668e-004
2,244771e+003;1,452571e-003
2,246699e+003;1,431860e-003
2,248628e+003;5,831528e-004
2,250556e+003;7,620896e-006
2,252485e+003;4,469430e-004
2,254413e+003;1,215931e-003
2,256342e+003;9,735081e-004
2,258270e+003;6,413187e-004
2,260199e+003;1,106528e-003
2,262127e+003;6,042217e-004
2,264056e+003;-2,622430e-004
2,265984e+003;3,077254e-004
2,267913e+003;1,406695e-003
2,269841e+003;1,727927e-003
2,271770e+003;1,804379e-003
2,273698e+003;2,023231e-003
2,275627e+003;1,854923e-003
2,277555e+003;1,505533e-003
2,279484e+003;1,425909e-003
2,281412e+003;1,329814e-003
2,283341e+003;1,441301e-003
2,285269e+003;1,747621e-003
2,287198e+003;1,943479e-003
2,289126e+003;2,025528e-003
2,291055e+003;2,039144e-003
2,292983e+003;1,757468e-003
2,294912e+003;1,398551e-003
2,296840e+003;1,065273e-003
2,298769e+003;1,498584e-003
2,300697e+003;1,698654e-003
2,302626e+003;1,303360e-003
2,304554e+003;9,225694e-004
2,306483e+003;4,574243e-004
2,308411e+003;3,694028e-004
2,310340e+003;9,259562e-004
2,312268e+003;1,084438e-003
2,314197e+003;5,780433e-004
2,316125e+003;9,231007e-004
2,318054e+003;1,840747e-003
2,319982e+003;1,644603e-003
2,321911e+003;1,338489e-003
2,323839e+003;2,185444e-003
2,325768e+003;2,512252e-003
2,327696e+003;1,565752e-003
2,329625e+003;2,458910e-004
2,331553e+003;-1,414800e-005
2,333482e+003;-2,357510e-004
2,335410e+003;-2,186296e-004
2,337339e+003;1,145595e-004
2,339267e+003;-1,038041e-003
2,341196e+003;-1,113432e-003
2,343124e+003;4,646552e-004
2,345053e+003;9,339587e-004
2,346981e+003;4,943098e-004
2,348910e+003;-2,449240e-004
2,350838e+003;-7,938283e-004
2,352767e+003;-7,500367e-004
2,354695e+003;-8,418154e-004
2,356624e+003;-9,921250e-004
2,358552e+003;3,449961e-004
2,360481e+003;3,967957e-004
2,362409e+003;-2,046208e-004
2,364338e+003;-7,706762e-004
2,366266e+003;-7,480852e-004
2,368195e+003;1,192326e-004
2,370123e+003;-1,819340e-004
2,372052e+003;1,225470e-004
2,373980e+003;-3,848470e-004
2,375909e+003;-6,961843e-004
2,377837e+003;-5,307149e-004
2,379766e+003;-1,481502e-004
2,381694e+003;1,874466e-004
2,383623e+003;1,136512e-005
2,385551e+003;-3,806096e-004
2,387479e+003;-4,791520e-004
2,389408e+003;-2,675743e-004
2,391337e+003;-8,229716e-005
2,393265e+003;-4,277816e-004
2,395194e+003;-4,857715e-004
2,397122e+003;-2,877732e-004
2,399051e+003;-3,101564e-004
2,400979e+003;-5,088394e-004
2,402907e+003;-5,330314e-004
2,404836e+003;-1,217505e-004
2,406765e+003;7,295281e-004
2,408693e+003;6,587402e-004
2,410622e+003;-6,977468e-005
2,412550e+003;-4,091782e-004
2,414479e+003;-2,533021e-004
2,416407e+003;2,097891e-004
2,418335e+003;2,285856e-004
2,420264e+003;-8,189962e-005
2,422193e+003;2,673414e-004
2,424121e+003;4,567609e-004
2,426050e+003;9,510510e-005
2,427978e+003;-5,587111e-004
2,429906e+003;-5,997095e-004
2,431835e+003;3,886797e-005
2,433763e+003;-1,498063e-004
2,435692e+003;-2,305186e-004
2,437621e+003;-4,618640e-005
2,439549e+003;-8,050825e-005
2,441478e+003;-2,915479e-004
2,443406e+003;1,317609e-004
2,445334e+003;4,427307e-004
2,447263e+003;1,995127e-004
2,449191e+003;1,252647e-004
2,451120e+003;1,544984e-004
2,453049e+003;-1,292226e-006
2,454977e+003;1,867173e-004
2,456906e+003;3,366066e-004
2,458834e+003;4,148706e-004
2,460762e+003;3,704308e-004
2,462691e+003;-8,955207e-005
2,464619e+003;-1,169616e-005
2,466548e+003;1,494271e-004
2,468477e+003;1,858886e-004
2,470405e+003;-4,733599e-004
2,472333e+003;-7,913809e-004
2,474262e+003;-2,300550e-004
2,476190e+003;1,304352e-004
2,478119e+003;1,575809e-004
2,480047e+003;5,626524e-005
2,481976e+003;5,093000e-005
2,483905e+003;-1,083470e-005
2,485833e+003;1,191332e-004
2,487761e+003;-7,212682e-005
2,489690e+003;-5,729071e-004
2,491618e+003;-3,186988e-004
2,493547e+003;-1,422874e-004
2,495475e+003;-3,864691e-004
2,497404e+003;-2,915810e-004
2,499333e+003;-1,702425e-004
2,501261e+003;1,293083e-004
2,503189e+003;2,145959e-004
2,505118e+003;1,089584e-004
2,507046e+003;-1,732876e-005
2,508975e+003;2,477144e-004
2,510903e+003;5,367717e-004
2,512832e+003;2,336247e-004
2,514760e+003;-1,754756e-004
2,516689e+003;1,189528e-005
2,518617e+003;4,576565e-004
2,520546e+003;5,885278e-004
2,522474e+003;5,232365e-004
2,524403e+003;8,652290e-004
2,526331e+003;4,359977e-004
2,528260e+003;3,154475e-005
2,530188e+003;4,124495e-004
2,532117e+003;4,170595e-004
2,534045e+003;4,047883e-004
2,535974e+003;3,455598e-004
2,537902e+003;6,097091e-005
2,539831e+003;-1,160199e-004
2,541759e+003;1,298386e-004
2,543688e+003;2,824601e-004
2,545616e+003;3,055702e-004
2,547545e+003;3,155507e-004
2,549473e+003;-7,143112e-005
2,551402e+003;7,899873e-005
2,553330e+003;5,311711e-005
2,555259e+003;1,247676e-004
2,557187e+003;5,769816e-004
2,559116e+003;8,940808e-004
2,561044e+003;8,553023e-004
2,562973e+003;6,362417e-004
2,564901e+003;4,698960e-004
2,566830e+003;2,147948e-004
2,568758e+003;4,951059e-004
2,570687e+003;9,397033e-004
2,572615e+003;9,452155e-004
2,574544e+003;8,438819e-004
2,576472e+003;7,222596e-004
2,578401e+003;4,469762e-004
2,580329e+003;4,317854e-004
2,582258e+003;4,766959e-004
2,584186e+003;5,833519e-004
2,586115e+003;8,878057e-004
2,588043e+003;1,205597e-003
2,589972e+003;9,083581e-004
2,591900e+003;5,698152e-004
2,593829e+003;9,085905e-004
2,595757e+003;1,085568e-003
2,597686e+003;9,818766e-004
2,599614e+003;6,042217e-004
2,601543e+003;7,412442e-004
2,603471e+003;8,467701e-004
2,605400e+003;6,909302e-004
2,607328e+003;9,251261e-004
2,609257e+003;8,473677e-004
2,611185e+003;8,656274e-004
2,613114e+003;1,150877e-003
2,615042e+003;1,212375e-003
2,616971e+003;1,017677e-003
2,618899e+003;6,858526e-004
2,620828e+003;5,694171e-004
2,622756e+003;7,058313e-004
2,624685e+003;7,351372e-004
2,626613e+003;7,642128e-004
2,628542e+003;1,089222e-003
2,630470e+003;1,199716e-003
2,632399e+003;1,075636e-003
2,634327e+003;9,090554e-004
2,636256e+003;8,627390e-004
2,638184e+003;9,963560e-004
2,640113e+003;1,211246e-003
2,642041e+003;1,278634e-003
2,643970e+003;1,182439e-003
2,645898e+003;1,062582e-003
2,647827e+003;9,035768e-004
2,649755e+003;9,591291e-004
2,651684e+003;1,149116e-003
2,653612e+003;1,093905e-003
2,655541e+003;1,065870e-003
2,657469e+003;1,087826e-003
2,659398e+003;1,109817e-003
2,661326e+003;1,114667e-003
2,663255e+003;9,105827e-004
2,665183e+003;5,615209e-004
2,667112e+003;2,669767e-004
2,669040e+003;2,859083e-004
2,670969e+003;1,994133e-004
2,672897e+003;1,341949e-005
2,674826e+003;1,842312e-004
2,676754e+003;3,301073e-004
2,678683e+003;1,426655e-004
2,680611e+003;-1,838900e-005
2,682540e+003;6,163368e-005
2,684468e+003;2,630314e-004
2,686397e+003;3,590231e-004
2,688325e+003;1,834025e-004
2,690254e+003;2,125074e-004
2,692182e+003;9,520453e-005
2,694111e+003;-7,852058e-005
2,696039e+003;-2,540638e-004
2,697968e+003;-2,660582e-005
2,699896e+003;6,000989e-005
2,701825e+003;-6,791947e-005
2,703753e+003;-6,119426e-005
2,705682e+003;3,134593e-005
2,707610e+003;3,600180e-004
2,709539e+003;2,430068e-004
2,711467e+003;1,921817e-005
2,713396e+003;1,571500e-004
2,715324e+003;2,428741e-004
2,717253e+003;5,612224e-004
2,719181e+003;5,404873e-004
2,721110e+003;2,086620e-004
2,723038e+003;4,287756e-005
2,724967e+003;1,717014e-004
2,726895e+003;2,161208e-004
2,728823e+003;1,478030e-004
2,730752e+003;2,019326e-004
2,732681e+003;1,422014e-004
2,734609e+003;2,508971e-004
2,736538e+003;3,279852e-004
2,738466e+003;1,914907e-004
2,740395e+003;2,507314e-004
2,742323e+003;2,967172e-004
2,744251e+003;1,179401e-004
2,746180e+003;1,915901e-004
2,748109e+003;2,886603e-004
2,750037e+003;5,414162e-004
2,751966e+003;3,514955e-004
2,753894e+003;-8,809448e-005
2,755823e+003;-1,086661e-004
2,757751e+003;-9,008211e-005
2,759679e+003;7,618184e-005
2,761608e+003;2,299448e-004
2,763537e+003;2,506319e-004
2,765465e+003;3,567682e-004
2,767394e+003;2,335252e-004
2,769322e+003;3,147848e-005
2,771250e+003;1,989492e-004
2,773179e+003;5,607247e-004
2,775107e+003;2,907491e-004
2,777036e+003;-5,016204e-005
2,778965e+003;1,176749e-004
2,780893e+003;4,326809e-004
2,782822e+003;3,671478e-004
2,784750e+003;3,186344e-004
2,786678e+003;1,344125e-004
2,788607e+003;-6,262288e-006
2,790535e+003;2,846307e-005
2,792464e+003;3,690712e-004
2,794393e+003;6,401573e-004
2,796321e+003;7,006872e-004
2,798250e+003;8,817962e-004
2,800178e+003;6,185558e-004
2,802106e+003;3,003314e-004
2,804035e+003;3,985202e-004
2,805963e+003;3,949385e-004
2,807892e+003;2,381665e-004
2,809821e+003;1,633484e-004
2,811749e+003;3,175733e-004
2,813677e+003;5,337860e-004
2,815606e+003;5,641420e-004
2,817534e+003;4,727818e-004
2,819463e+003;5,855749e-004
2,821391e+003;9,770946e-004
2,823320e+003;9,819099e-004
2,825249e+003;5,756877e-004
2,827177e+003;7,437335e-004
2,829105e+003;1,258962e-003
2,831034e+003;1,227161e-003
2,832962e+003;1,371893e-003
2,834891e+003;1,503272e-003
2,836819e+003;1,088690e-003
2,838748e+003;1,266837e-003
2,840677e+003;1,608684e-003
2,842605e+003;1,505035e-003
2,844533e+003;1,319412e-003
2,846462e+003;1,462411e-003
2,848390e+003;1,268931e-003
2,850319e+003;1,081881e-003
2,852247e+003;1,441068e-003
2,854176e+003;1,170545e-003
2,856104e+003;9,194150e-004
2,858033e+003;1,268166e-003
2,859961e+003;1,412945e-003
2,861890e+003;1,604095e-003
2,863818e+003;1,927770e-003
2,865747e+003;1,827404e-003
2,867675e+003;1,521327e-003
2,869604e+003;1,701382e-003
2,871532e+003;2,244957e-003
2,873461e+003;2,451203e-003
2,875389e+003;2,177219e-003
2,877318e+003;2,157839e-003
2,879246e+003;2,367507e-003
2,881175e+003;2,340322e-003
2,883103e+003;2,435242e-003
2,885032e+003;2,546046e-003
2,886960e+003;2,347985e-003
2,888889e+003;2,340289e-003
2,890817e+003;2,721525e-003
2,892746e+003;2,806823e-003
2,894674e+003;2,335259e-003
2,896603e+003;2,186243e-003
2,898531e+003;2,745765e-003
2,900460e+003;3,198348e-003
2,902388e+003;3,127557e-003
2,904317e+003;3,192640e-003
2,906245e+003;3,718904e-003
2,908174e+003;3,873294e-003
2,910102e+003;3,514629e-003
2,912031e+003;3,290884e-003
2,913959e+003;3,447761e-003
2,915888e+003;3,770573e-003
2,917816e+003;3,725521e-003
2,919745e+003;3,954138e-003
2,921673e+003;4,701464e-003
2,923602e+003;4,860224e-003
2,925530e+003;4,721226e-003
2,927459e+003;5,002418e-003
2,929387e+003;5,208534e-003
2,931316e+003;5,062988e-003
2,933244e+003;4,881971e-003
2,935173e+003;5,051658e-003
2,937101e+003;5,549405e-003
2,939030e+003;6,371736e-003
2,940958e+003;6,150077e-003
2,942887e+003;5,183787e-003
2,944815e+003;4,587028e-003
2,946744e+003;4,192978e-003
2,948672e+003;4,270534e-003
2,950601e+003;4,878553e-003
2,952529e+003;5,228286e-003
2,954458e+003;5,414749e-003
2,956386e+003;5,952985e-003
2,958315e+003;6,750066e-003
2,960243e+003;6,776586e-003
2,962172e+003;6,160495e-003
2,964100e+003;6,416491e-003
2,966029e+003;6,411682e-003
2,967957e+003;5,210211e-003
2,969886e+003;4,459131e-003
2,971814e+003;4,447648e-003
2,973743e+003;4,272341e-003
2,975671e+003;3,916322e-003
2,977600e+003;3,541452e-003
2,979528e+003;3,555383e-003
2,981457e+003;3,801491e-003
2,983385e+003;3,861961e-003
2,985314e+003;3,537644e-003
2,987242e+003;3,761415e-003
2,989171e+003;4,077705e-003
2,991099e+003;3,689931e-003
2,993028e+003;3,182660e-003
2,994956e+003;2,881931e-003
2,996885e+003;2,914953e-003
2,998813e+003;3,358830e-003
3,000742e+003;3,580238e-003
3,002670e+003;3,717635e-003
3,004599e+003;3,837090e-003
3,006527e+003;3,799652e-003
3,008456e+003;3,605295e-003
3,010384e+003;3,634296e-003
3,012313e+003;3,917425e-003
3,014241e+003;3,317194e-003
3,016170e+003;2,946010e-003
3,018098e+003;2,639543e-003
3,020027e+003;2,518684e-003
3,021955e+003;2,780144e-003
3,023884e+003;2,610342e-003
3,025812e+003;2,100668e-003
3,027741e+003;1,836122e-003
3,029669e+003;1,707070e-003
3,031598e+003;1,998798e-003
3,033526e+003;2,383398e-003
3,035455e+003;2,090113e-003
3,037383e+003;1,607188e-003
3,039312e+003;1,387382e-003
3,041240e+003;1,180878e-003
3,043169e+003;1,145761e-003
3,045097e+003;1,178386e-003
3,047026e+003;1,132672e-003
3,048954e+003;1,148352e-003
3,050883e+003;9,507609e-004
3,052811e+003;8,342876e-004
3,054740e+003;1,056902e-003
3,056668e+003;6,665717e-004
3,058597e+003;5,336201e-004
3,060525e+003;6,747353e-004
3,062454e+003;1,639119e-004
3,064382e+003;8,940484e-005
3,066311e+003;4,743408e-004
3,068239e+003;7,641132e-004
3,070167e+003;2,719168e-004
3,072096e+003;-5,098985e-004
3,074025e+003;-1,011133e-004
3,075953e+003;9,573479e-005
3,077882e+003;-3,717042e-004
3,079810e+003;-2,622430e-004
3,081739e+003;-7,123235e-005
3,083667e+003;5,152649e-005
3,085595e+003;-9,415673e-005
3,087524e+003;-4,259280e-004
3,089453e+003;-2,808858e-004
3,091381e+003;-3,213475e-004
3,093310e+003;-4,535338e-004
3,095238e+003;1,279162e-004
3,097167e+003;4,179882e-004
3,099095e+003;-8,945270e-005
3,101023e+003;-2,846606e-004
3,102952e+003;-5,685391e-004
3,104881e+003;-6,087756e-004
3,106809e+003;-3,279032e-004
3,108738e+003;6,040755e-005
3,110666e+003;-3,296712e-005
3,112594e+003;-1,341908e-005
3,114523e+003;-9,882759e-005
3,116451e+003;-3,647851e-004
3,118380e+003;4,082375e-004
3,120309e+003;6,633860e-004
3,122237e+003;4,218168e-005
3,124166e+003;2,803050e-004
3,126094e+003;4,460071e-005
3,128022e+003;-4,277394e-005
3,129951e+003;1,462783e-004
3,131879e+003;-6,831701e-005
3,133808e+003;-1,453016e-004
3,135737e+003;-4,972559e-004
3,137665e+003;-4,337399e-004
3,139594e+003;-2,027330e-004
3,141522e+003;-1,796487e-004
3,143450e+003;1,290100e-004
3,145379e+003;3,768312e-004
3,147307e+003;-3,618386e-004
3,149236e+003;-3,167122e-004
3,151165e+003;-2,418774e-004
3,153093e+003;-6,281976e-004
3,155021e+003;-6,087094e-004
3,156950e+003;-2,007128e-004
3,158878e+003;-4,032225e-005
3,160807e+003;1,062076e-004
3,162735e+003;1,106691e-005
3,164664e+003;-9,984061e-004
3,166593e+003;-7,693863e-004
3,168521e+003;-1,261561e-004
3,170449e+003;-3,810730e-004
3,172378e+003;-3,240625e-004
3,174306e+003;2,182756e-004
3,176235e+003;4,826334e-004
3,178163e+003;1,723312e-004
3,180092e+003;-2,114762e-004
3,182021e+003;-6,380902e-004
3,183949e+003;-1,207084e-003
3,185877e+003;-1,483162e-003
3,187806e+003;-1,261402e-003
3,189734e+003;-8,762397e-004
3,191663e+003;-8,070906e-004
3,193591e+003;-5,938197e-004
3,195520e+003;-7,654503e-004
3,197448e+003;-1,215410e-003
3,199377e+003;-1,525361e-003
3,201305e+003;-1,424281e-003
3,203234e+003;-7,476222e-004
3,205162e+003;-1,741838e-004
3,207091e+003;-1,481502e-004
3,209019e+003;-6,177753e-004
3,210948e+003;-1,056221e-003
3,212876e+003;-1,304778e-003
3,214805e+003;-1,418502e-003
3,216733e+003;-1,132700e-003
3,218662e+003;-6,915860e-004
3,220590e+003;-8,672454e-004
3,222519e+003;-9,373107e-004
3,224447e+003;-1,003629e-003
3,226376e+003;-1,735172e-003
3,228304e+003;-1,714710e-003
3,230233e+003;-6,798089e-004
3,232161e+003;-3,787557e-004
3,234090e+003;-4,431073e-004
3,236018e+003;-7,647226e-004
3,237947e+003;-1,082530e-003
3,239875e+003;-5,244601e-004
3,241804e+003;-6,660465e-004
3,243732e+003;-9,159186e-004
3,245661e+003;-7,162971e-004
3,247589e+003;-1,463349e-003
3,249518e+003;-1,475930e-003
3,251446e+003;-8,180044e-004
3,253375e+003;-2,663491e-004
3,255303e+003;-5,888233e-004
3,257232e+003;-1,230180e-003
3,259160e+003;-1,724908e-003
3,261089e+003;-1,973809e-003
3,263017e+003;-1,378109e-003
3,264946e+003;-1,074400e-003
3,266874e+003;-9,520233e-004
3,268803e+003;-1,023034e-003
3,270731e+003;-8,963442e-004
3,272660e+003;-6,157570e-004
3,274588e+003;-8,495206e-004
3,276517e+003;-1,329487e-003
3,278445e+003;-1,445648e-003
3,280374e+003;-1,186696e-003
3,282302e+003;-1,620739e-003
3,284231e+003;-1,648302e-003
3,286159e+003;-1,541044e-003
3,288088e+003;-1,351718e-003
3,290016e+003;-9,750004e-004
3,291945e+003;-1,314523e-003
3,293873e+003;-1,833704e-003
3,295802e+003;-1,514828e-003
3,297730e+003;-5,291926e-004
3,299659e+003;-5,225406e-004
3,301587e+003;-1,499771e-003
3,303516e+003;-1,806549e-003
3,305444e+003;-1,773485e-003
3,307373e+003;-1,423356e-003
3,309301e+003;-1,184780e-003
3,311230e+003;-1,234541e-003
3,313158e+003;-1,639818e-003
3,315087e+003;-2,272737e-003
3,317015e+003;-2,472205e-003
3,318944e+003;-2,318682e-003
3,320872e+003;-1,693158e-003
3,322801e+003;-9,793973e-004
3,324729e+003;-1,115019e-003
3,326658e+003;-6,267749e-004
3,328586e+003;-4,598557e-004
3,330515e+003;-9,855463e-004
3,332443e+003;-1,367837e-003
3,334372e+003;-1,366549e-003
3,336300e+003;-2,195074e-003
3,338229e+003;-1,669229e-003
3,340157e+003;-1,273262e-003
3,342086e+003;-2,003955e-003
3,344014e+003;-2,229556e-003
3,345943e+003;-1,621729e-003
3,347871e+003;-1,395350e-003
3,349800e+003;-2,086500e-003
3,351728e+003;-2,453787e-003
3,353657e+003;-2,112484e-003
3,355585e+003;-1,970609e-003
3,357514e+003;-1,805559e-003
3,359442e+003;-1,714050e-003
3,361371e+003;-1,772561e-003
3,363299e+003;-1,968960e-003
3,365228e+003;-2,072188e-003
3,367156e+003;-2,102394e-003
3,369085e+003;-1,553524e-003
3,371013e+003;-1,538006e-003
3,372942e+003;-1,868446e-003
3,374870e+003;-2,262420e-003
3,376799e+003;-1,930565e-003
3,378727e+003;-1,991224e-003
3,380656e+003;-2,925502e-003
3,382584e+003;-2,647080e-003
3,384513e+003;-1,969290e-003
3,386441e+003;-1,994060e-003
3,388370e+003;-2,502382e-003
3,390298e+003;-2,573601e-003
3,392227e+003;-2,379847e-003
3,394155e+003;-2,569747e-003
3,396083e+003;-2,702205e-003
3,398012e+003;-2,775728e-003
3,399941e+003;-2,722160e-003
3,401869e+003;-2,494706e-003
3,403798e+003;-2,031955e-003
3,405726e+003;-1,916446e-003
3,407655e+003;-1,819846e-003
3,409583e+003;-2,734935e-003
3,411511e+003;-3,485001e-003
3,413440e+003;-2,776025e-003
3,415369e+003;-1,140169e-003
3,417297e+003;-1,955462e-004
3,419226e+003;-9,727854e-004
3,421154e+003;-1,893321e-003
3,423083e+003;-1,637970e-003
3,425011e+003;-1,720947e-003
3,426939e+003;-1,985518e-003
3,428868e+003;-1,849838e-003
3,430797e+003;-2,390194e-003
3,432725e+003;-2,298479e-003
3,434654e+003;-2,573403e-003
3,436582e+003;-2,722423e-003
3,438510e+003;-1,847858e-003
3,440439e+003;-1,478043e-003
3,442367e+003;-1,603045e-003
3,444296e+003;-2,908980e-003
3,446225e+003;-3,009353e-003
3,448153e+003;-1,966025e-003
3,450082e+003;-1,672529e-003
3,452010e+003;-2,208128e-003
3,453938e+003;-2,464726e-003
3,455867e+003;-2,119111e-003
3,457795e+003;-1,654540e-003
3,459724e+003;-2,191447e-003
3,461653e+003;-1,562966e-003
3,463581e+003;-1,515818e-003
3,465510e+003;-1,959955e-003
3,467438e+003;-1,951808e-003
3,469366e+003;-1,705370e-003
3,471295e+003;-1,651273e-003
3,473223e+003;-2,216700e-003
3,475152e+003;-2,756435e-003
3,477081e+003;-3,152664e-003
3,479009e+003;-2,910231e-003
3,480938e+003;-2,483011e-003
3,482866e+003;-1,632920e-003
3,484794e+003;-7,449429e-004
3,486723e+003;-1,132270e-003
3,488651e+003;-1,082530e-003
3,490580e+003;-7,397498e-004
3,492509e+003;-7,809625e-004
3,494437e+003;-7,859567e-004
3,496365e+003;-8,933351e-004
3,498294e+003;-1,135773e-003
3,500222e+003;-1,007299e-003
3,502151e+003;-1,433165e-003
3,504079e+003;-1,842382e-003
3,506008e+003;-1,380487e-003
3,507937e+003;-4,905705e-004
3,509865e+003;2,121096e-004
3,511793e+003;1,374617e-004
3,513722e+003;-1,380883e-003
3,515650e+003;-2,303027e-003
3,517579e+003;-2,106153e-003
3,519507e+003;-1,126454e-003
3,521436e+003;-1,495809e-003
3,523365e+003;-1,964177e-003
3,525293e+003;-1,065046e-003
3,527221e+003;-5,382601e-004
3,529150e+003;-1,526351e-003
3,531078e+003;-2,410262e-003
3,533007e+003;-2,205722e-003
3,534935e+003;-2,547315e-003
3,536864e+003;-3,174144e-003
3,538792e+003;-2,084356e-003
3,540721e+003;-9,915299e-004
3,542649e+003;-1,154643e-003
3,544578e+003;-2,167776e-003
3,546506e+003;-1,562834e-003
3,548435e+003;-1,800576e-003
3,550363e+003;-1,845252e-003
3,552292e+003;-6,367007e-004
3,554220e+003;-8,491238e-004
3,556149e+003;-1,542067e-003
3,558077e+003;-1,560820e-003
3,560006e+003;-9,575445e-004
3,561934e+003;-5,343882e-004
3,563863e+003;-2,164710e-003
3,565791e+003;-3,346500e-003
3,567720e+003;-2,045905e-003
3,569648e+003;-2,925173e-003
3,571577e+003;-3,502815e-003
3,573505e+003;-2,799827e-003
3,575434e+003;-2,773095e-003
3,577362e+003;-2,550741e-003
3,579291e+003;-1,867126e-003
3,581219e+003;-1,119414e-003
3,583148e+003;-8,756114e-004
3,585076e+003;-1,339595e-003
3,587005e+003;-2,450855e-003
3,588933e+003;-2,695751e-003
3,590862e+003;-2,509070e-003
3,592790e+003;-1,994951e-003
3,594719e+003;-1,684280e-003
3,596647e+003;-1,241843e-003
3,598576e+003;-1,109830e-003
3,600504e+003;-1,274352e-003
3,602433e+003;-1,005811e-003
3,604361e+003;-1,274782e-003
3,606290e+003;-1,180980e-003
3,608218e+003;-1,482898e-003
3,610147e+003;-2,254806e-003
3,612075e+003;-1,727251e-003
3,614004e+003;-1,623941e-003
3,615932e+003;-1,715535e-003
3,617861e+003;-1,977668e-003
3,619789e+003;-1,744049e-003
3,621718e+003;-8,560682e-004
3,623646e+003;-9,630326e-004
3,625575e+003;-1,793185e-003
3,627503e+003;-2,361920e-003
3,629432e+003;-2,272111e-003
3,631360e+003;-1,508290e-003
3,633289e+003;-1,072945e-003
3,635217e+003;-5,352487e-004
3,637146e+003;-2,318101e-004
3,639074e+003;-9,163909e-005
3,641003e+003;-1,938902e-004
3,642931e+003;-1,183194e-003
3,644860e+003;-2,676356e-003
3,646788e+003;-3,550405e-003
3,648717e+003;-2,332986e-003
3,650645e+003;9,324920e-005
3,652574e+003;-6,185032e-004
3,654502e+003;-8,985926e-004
3,656431e+003;-8,436342e-004
3,658359e+003;-2,727069e-004
3,660288e+003;-9,107606e-004
3,662216e+003;-1,311848e-003
3,664145e+003;-6,927107e-004
3,666073e+003;-2,572759e-004
3,668002e+003;-6,371969e-004
3,669930e+003;-1,628595e-003
3,671859e+003;-1,287071e-003
3,673787e+003;-7,384266e-004
3,675716e+003;-7,691217e-004
3,677644e+003;-2,016070e-004
3,679573e+003;-5,299868e-004
3,681501e+003;-1,039462e-003
3,683430e+003;-1,024918e-003
3,685358e+003;-1,001447e-003
3,687287e+003;-1,348580e-003
3,689215e+003;-9,486179e-004
3,691144e+003;-1,541308e-003
3,693072e+003;-1,620706e-003
3,695001e+003;-8,833822e-004
3,696929e+003;2,147285e-004
3,698858e+003;1,556916e-004
3,700786e+003;-3,739885e-004
3,702715e+003;-4,713409e-004
3,704643e+003;-8,857299e-004
3,706572e+003;-3,369419e-004
3,708500e+003;4,026990e-004
3,710429e+003;3,008619e-004
3,712357e+003;1,899327e-004
3,714286e+003;4,934472e-004
3,716214e+003;3,808108e-004
3,718143e+003;-1,291042e-004
3,720071e+003;4,698297e-004
3,722000e+003;6,057325e-005
3,723928e+003;-4,877904e-004
3,725857e+003;2,336578e-004
3,727785e+003;4,168462e-005
3,729714e+003;6,889113e-005
3,731642e+003;-5,808157e-004
3,733571e+003;-1,282149e-003
3,735499e+003;-1,620541e-003
3,737427e+003;-3,736244e-004
3,739356e+003;1,740548e-004
3,741285e+003;-9,884886e-004
3,743213e+003;-1,483426e-003
3,745142e+003;-5,055630e-004
3,747070e+003;5,427764e-004
3,748999e+003;1,839084e-003
3,750927e+003;2,955818e-003
3,752855e+003;1,726097e-003
3,754784e+003;1,458805e-004
3,756713e+003;-1,282760e-004
3,758641e+003;9,834375e-004
3,760570e+003;1,284616e-003
3,762498e+003;-3,677863e-006
3,764427e+003;-3,487614e-004
3,766355e+003;3,638316e-004
3,768283e+003;8,200792e-004
3,770212e+003;8,436494e-004
3,772141e+003;2,114466e-004
3,774069e+003;3,049402e-004
3,775998e+003;6,280789e-004
3,777926e+003;6,433761e-004
3,779854e+003;1,088557e-003
3,781783e+003;9,373456e-004
3,783711e+003;3,699666e-004
3,785640e+003;3,012597e-004
3,787569e+003;2,291492e-004
3,789497e+003;-7,868621e-005
3,791426e+003;-3,126065e-004
3,793354e+003;-8,205840e-004
3,795282e+003;-8,066276e-004
3,797211e+003;-9,479898e-004
3,799139e+003;-1,263714e-003
3,801068e+003;7,020147e-004
3,802997e+003;1,631832e-003
3,804925e+003;-5,436956e-005
3,806854e+003;-2,064091e-004
3,808782e+003;-5,238176e-005
3,810710e+003;-4,656811e-004
3,812639e+003;-4,034183e-004
3,814567e+003;-6,588012e-004
3,816496e+003;3,774613e-004
3,818425e+003;7,136637e-004
3,820353e+003;4,487673e-004
3,822281e+003;5,745929e-004
3,824210e+003;2,553728e-004
3,826138e+003;-1,809404e-004
3,828067e+003;-7,422967e-004
3,829995e+003;-2,431027e-004
3,831924e+003;2,968167e-004
3,833853e+003;1,088921e-004
3,835781e+003;-7,615804e-004
3,837709e+003;-1,567919e-003
3,839638e+003;-1,586505e-003
3,841566e+003;-7,783166e-004
3,843495e+003;-1,272139e-003
3,845423e+003;-1,337547e-003
3,847352e+003;-6,234662e-004
3,849281e+003;-9,627681e-004
3,851209e+003;-6,772616e-004
3,853137e+003;2,218114e-003
3,855066e+003;2,166796e-003
3,856994e+003;9,713163e-004
3,858923e+003;1,975901e-004
3,860851e+003;-4,765704e-004
3,862780e+003;-8,194596e-004
3,864708e+003;-4,602529e-004
3,866637e+003;-5,496771e-004
3,868565e+003;-9,932490e-004
3,870494e+003;5,160710e-004
3,872422e+003;1,112674e-003
3,874351e+003;7,638067e-005
3,876279e+003;-5,783339e-004
3,878208e+003;-3,816874e-005
3,880136e+003;4,776910e-004
3,882065e+003;2,405535e-004
3,883993e+003;-3,349884e-004
3,885922e+003;-7,832181e-005
3,887850e+003;-8,329099e-005
3,889779e+003;-5,349508e-004
3,891707e+003;-1,543586e-003
3,893636e+003;-9,866373e-004
3,895564e+003;-2,784355e-004
3,897493e+003;-7,152054e-004
3,899421e+003;-5,813120e-004
3,901350e+003;-4,603191e-004
3,903278e+003;-5,622519e-004
3,905207e+003;-3,900775e-004
3,907135e+003;3,251335e-004
3,909064e+003;6,356445e-004
3,910992e+003;7,074694e-005
3,912921e+003;-4,456891e-004
3,914849e+003;3,409174e-004
3,916778e+003;1,004426e-003
3,918706e+003;-2,745613e-004
3,920635e+003;-3,712076e-004
3,922563e+003;3,888031e-004
3,924492e+003;1,048599e-003
3,926420e+003;5,539235e-004
3,928349e+003;2,305084e-004
3,930277e+003;9,381260e-005
3,932206e+003;-2,073033e-004
3,934134e+003;-1,941611e-005
3,936063e+003;2,683029e-004
3,937991e+003;-3,549193e-004
3,939920e+003;-7,079279e-004
3,941848e+003;-5,360760e-004
3,943777e+003;-1,085004e-004
3,945705e+003;-5,463017e-004
3,947634e+003;-6,161210e-004
3,949562e+003;-4,176856e-004
3,951491e+003;-4,603853e-004
3,953419e+003;1,578130e-004
3,955348e+003;8,864112e-004
3,957276e+003;4,697633e-004
3,959205e+003;-2,542293e-004
3,961133e+003;9,474055e-005
3,963062e+003;2,057780e-004
3,964990e+003;-6,775924e-004
3,966919e+003;-8,806707e-004
3,968847e+003;-4,020280e-004
3,970776e+003;-2,090707e-005
3,972704e+003;3,414479e-004
3,974633e+003;1,715025e-004
3,976561e+003;3,011603e-004
3,978490e+003;1,166890e-003
3,980418e+003;6,544262e-004
3,982347e+003;-4,691233e-004
3,984275e+003;-2,894619e-004
3,986204e+003;-3,818013e-004
3,988132e+003;-5,189996e-004
3,990061e+003;-3,197914e-004
3,991989e+003;-6,642867e-005
3,993918e+003;1,465766e-004
3,995846e+003;7,682623e-004
3,997775e+003;1,559567e-003
3,999703e+003;8,195812e-004
4,001632e+003;-2,334660e-004
4,003560e+003;-2,540638e-004
4,005489e+003;4,592154e-004
4,007417e+003;-1,925986e-004
4,009346e+003;-5,648661e-004
4,011274e+003;-2,001497e-004
4,013203e+003;2,597786e-005
4,015131e+003;5,308398e-005
4,017060e+003;-2,209478e-004
4,018988e+003;-4,514154e-004
4,020917e+003;-2,770447e-004
4,022845e+003;-1,239699e-004
4,024774e+003;-5,833305e-004
4,026702e+003;-4,768683e-004
4,028631e+003;-3,532970e-004
4,030559e+003;3,406313e-005
4,032488e+003;-1,345365e-004
4,034416e+003;2,264639e-004
4,036345e+003;7,363984e-004
4,038273e+003;2,903181e-004
4,040202e+003;2,087283e-004
4,042130e+003;3,860287e-005
4,044059e+003;-3,128052e-004
4,045987e+003;2,982065e-007
4,047916e+003;2,231157e-004
4,049844e+003;-1,499057e-004
4,051773e+003;-5,369695e-004
4,053701e+003;-2,496264e-004
4,055630e+003;7,866182e-004
4,057558e+003;1,019836e-003
4,059487e+003;6,068430e-004
4,061415e+003;2,040874e-004
4,063344e+003;1,501894e-004
4,065272e+003;3,094828e-004
4,067201e+003;-7,070228e-005
4,069129e+003;2,632303e-004
4,071058e+003;5,436389e-004
4,072986e+003;8,433175e-004
4,074915e+003;1,087229e-003
4,076843e+003;8,367774e-004
4,078771e+003;4,544723e-004
4,080700e+003;-2,319377e-006
4,082629e+003;4,732130e-004
4,084557e+003;5,201513e-004
4,086486e+003;-5,394515e-004
4,088414e+003;-7,690224e-004
4,090343e+003;-5,014261e-004
4,092271e+003;8,111970e-005
4,094199e+003;2,503998e-004
4,096128e+003;7,485625e-005
4,098057e+003;6,889389e-004
4,099985e+003;1,628180e-004
4,101914e+003;-6,814630e-004
4,103842e+003;-7,414698e-004
4,105771e+003;-8,631119e-004
4,107699e+003;-3,793185e-004
4,109627e+003;1,841980e-004
4,111556e+003;3,549443e-004
4,113484e+003;4,482034e-004
4,115413e+003;6,667377e-004
4,117341e+003;8,450770e-004
4,119270e+003;3,358771e-004
4,121199e+003;-6,819261e-004
4,123127e+003;-4,884523e-004
4,125056e+003;1,731599e-004
4,126984e+003;2,375035e-004
4,128913e+003;1,137309e-004
4,130841e+003;-4,658135e-004
4,132770e+003;-7,063731e-004
4,134698e+003;-7,666540e-005
4,136626e+003;4,893672e-004
4,138555e+003;1,240087e-003
4,140483e+003;8,076306e-004
4,142412e+003;1,225977e-005
4,144340e+003;2,109162e-004
4,146269e+003;3,995815e-004
4,148197e+003;5,195728e-005
4,150126e+003;-6,149242e-005
4,152055e+003;5,402550e-004
4,153983e+003;7,358010e-004
4,155912e+003;9,031452e-004
4,157840e+003;1,039598e-003
4,159769e+003;3,577298e-004
4,161697e+003;1,973580e-004
4,163625e+003;3,006298e-004
4,165554e+003;5,055220e-004
4,167482e+003;1,775685e-004
4,169411e+003;-1,746807e-004
4,171339e+003;-8,408605e-005
4,173268e+003;-5,692341e-004
4,175196e+003;-4,521436e-004
4,177125e+003;-4,876911e-004
4,179053e+003;-5,104280e-004
4,180982e+003;-5,111561e-004
4,182911e+003;-7,171240e-004
4,184839e+003;-2,899917e-004
4,186768e+003;-2,098203e-004
4,188696e+003;-1,331784e-004
4,190625e+003;2,053139e-004
4,192553e+003;5,410844e-004
4,194481e+003;1,463777e-004
4,196410e+003;4,828988e-004
4,198338e+003;7,664699e-004
4,200267e+003;2,437361e-004
4,202195e+003;2,638934e-004
4,204124e+003;6,217744e-004
4,206052e+003;1,154365e-003
4,207981e+003;8,211415e-004
4,209909e+003;4,069772e-004
4,211838e+003;5,154738e-004
4,213767e+003;8,147346e-004
4,215695e+003;9,152312e-004
4,217624e+003;3,820378e-004
4,219552e+003;9,137371e-004
4,221480e+003;8,241956e-004
4,223409e+003;-4,171375e-005
4,225337e+003;-4,752796e-004
4,227266e+003;-7,628704e-004
4,229194e+003;3,092175e-004
4,231123e+003;1,012364e-003
4,233051e+003;-2,180165e-005
4,234980e+003;-4,249349e-004
4,236908e+003;5,058205e-004
4,238837e+003;1,496591e-004
4,240765e+003;-3,190961e-004
4,242694e+003;1,560562e-004
4,244623e+003;1,666299e-004
4,246551e+003;-2,091580e-004
4,248479e+003;-7,944816e-005
4,250408e+003;8,051078e-004
4,252336e+003;1,007847e-003
4,254265e+003;7,036409e-004
4,256193e+003;7,616570e-004
4,258122e+003;8,146018e-004
4,260050e+003;1,003696e-003
4,261979e+003;1,308810e-003
4,263907e+003;1,484388e-003
4,265836e+003;1,119218e-003
4,267764e+003;1,826401e-004
4,269693e+003;1,113115e-004
4,271621e+003;3,873439e-004
4,273550e+003;2,581578e-004
4,275479e+003;3,271230e-004
4,277407e+003;7,706190e-004
4,279335e+003;1,089089e-003
4,281264e+003;6,504442e-004
4,283192e+003;9,411975e-004
4,285121e+003;7,617566e-004
4,287049e+003;-2,014083e-004
4,288978e+003;-1,241355e-004
4,290906e+003;1,659338e-004
4,292835e+003;-1,119124e-004
4,294763e+003;2,899202e-004
4,296692e+003;-3,026733e-004
4,298620e+003;-4,844145e-004
4,300549e+003;4,047220e-004
4,302477e+003;9,783898e-004
4,304406e+003;2,801392e-004
4,306334e+003;1,376938e-004
4,308263e+003;3,738797e-004
4,310191e+003;7,969085e-004
4,312120e+003;3,015582e-004
4,314048e+003;-9,300038e-004
4,315977e+003;-1,249475e-003
4,317905e+003;-2,485336e-004
4,319834e+003;4,344388e-004
4,321762e+003;9,984434e-005
4,323691e+003;1,603717e-005
4,325619e+003;1,071816e-003
4,327548e+003;9,367148e-004
4,329476e+003;-8,375478e-005
4,331405e+003;-2,662829e-004
4,333333e+003;-6,746480e-004
4,335262e+003;-1,197601e-003
4,337190e+003;-9,835958e-004
4,339119e+003;-8,042133e-004
4,341047e+003;9,089618e-005
4,342976e+003;9,383750e-004
4,344904e+003;7,160533e-004
4,346833e+003;1,188685e-003
4,348761e+003;1,254808e-003
4,350690e+003;6,449357e-004
4,352618e+003;3,711604e-004
4,354547e+003;9,968875e-004
4,356475e+003;2,448302e-004
4,358404e+003;-7,080933e-004
4,360332e+003;8,440060e-005
4,362261e+003;8,755876e-004
4,364189e+003;6,970697e-004
4,366118e+003;3,923517e-004
4,368046e+003;2,570968e-004
4,369975e+003;9,873894e-004
4,371903e+003;1,050924e-003
4,373832e+003;5,845463e-004
4,375760e+003;5,736639e-004
4,377688e+003;1,440907e-004
4,379617e+003;-5,705307e-005
4,381546e+003;-1,482495e-004
4,383474e+003;4,723506e-004
4,385403e+003;6,027950e-004
4,387331e+003;2,229499e-004
4,389260e+003;6,454998e-004
4,391188e+003;6,651448e-004
4,393117e+003;-1,037303e-004
4,395045e+003;-2,703228e-004
4,396974e+003;-9,613796e-004
4,398902e+003;-5,879960e-004
4,400831e+003;5,074459e-004
4,402759e+003;2,132699e-004
4,404688e+003;3,489753e-004
4,406616e+003;4,138425e-004
4,408544e+003;1,407762e-004
4,410473e+003;-1,674603e-004
4,412402e+003;-6,069557e-004
4,414330e+003;-4,093107e-004
4,416259e+003;5,686209e-004
4,418187e+003;1,152106e-003
4,420116e+003;-5,390574e-005
4,422044e+003;1,875427e-005
4,423973e+003;7,182106e-004
4,425901e+003;4,491985e-004
4,427830e+003;9,100515e-004
4,429758e+003;1,842245e-003
4,431687e+003;2,045768e-003
4,433615e+003;1,865238e-003
4,435543e+003;1,590460e-003
4,437472e+003;3,450624e-004
4,439400e+003;-1,569767e-003
4,441329e+003;-5,966322e-004
4,443258e+003;1,309707e-003
4,445186e+003;9,821423e-004
4,447115e+003;3,717905e-004
4,449043e+003;9,553594e-005
4,450972e+003;5,523796e-005
4,452900e+003;-2,289621e-004
4,454829e+003;-7,330349e-004
4,456757e+003;-6,991226e-006
4,458686e+003;-1,143636e-004
4,460614e+003;-7,211928e-004
4,462542e+003;-3,318431e-004
4,464471e+003;-1,453678e-004
4,466399e+003;-1,828614e-004
4,468328e+003;-6,082984e-005
4,470256e+003;1,895681e-004
4,472185e+003;1,114109e-004
4,474113e+003;2,621031e-004
4,476042e+003;3,826679e-004
4,477971e+003;-1,639825e-004
4,479899e+003;-2,940644e-004
4,481828e+003;4,235269e-004
4,483756e+003;1,606456e-003
4,485685e+003;1,698321e-003
4,487613e+003;2,021567e-003
4,489542e+003;1,817189e-003
4,491470e+003;6,225707e-004
4,493398e+003;3,399226e-004
4,495327e+003;1,242041e-004
4,497255e+003;-9,425612e-005
4,499184e+003;8,501896e-004
