5,245513e+002;2,315997e-001
5,264797e+002;4,152264e-003
5,284083e+002;1,910251e-001
5,303367e+002;3,537616e-001
5,322653e+002;1,781229e-001
5,341937e+002;1,235986e-002
5,361223e+002;-3,081433e-002
5,380507e+002;1,088655e-002
5,399792e+002;4,630565e-002
5,419077e+002;2,742711e-002
5,438362e+002;3,326960e-002
5,457647e+002;8,815136e-002
5,476932e+002;1,005426e-001
5,496217e+002;5,653793e-002
5,515502e+002;1,526984e-002
5,534787e+002;-2,637430e-003
5,554072e+002;1,058302e-002
5,573357e+002;3,945638e-002
5,592642e+002;2,964191e-002
5,611927e+002;1,629932e-002
5,631212e+002;1,907582e-002
5,650497e+002;3,290777e-002
5,669782e+002;4,555395e-002
5,689067e+002;5,708332e-002
5,708352e+002;5,008203e-002
5,727637e+002;4,040704e-002
5,746922e+002;3,599214e-002
5,766207e+002;3,009025e-002
5,785492e+002;1,633706e-002
5,804777e+002;2,358853e-002
5,824062e+002;2,853814e-002
5,843347e+002;1,825426e-002
5,862632e+002;1,142808e-002
5,881917e+002;1,831761e-002
5,901202e+002;2,556834e-002
5,920486e+002;2,531338e-002
5,939772e+002;2,455921e-002
5,959056e+002;2,801452e-002
5,978342e+002;2,491268e-002
5,997626e+002;2,643810e-002
6,016912e+002;2,551461e-002
6,036196e+002;1,824469e-002
6,055482e+002;1,684757e-002
6,074766e+002;2,395517e-002
6,094052e+002;2,767604e-002
6,113336e+002;2,174062e-002
6,132621e+002;1,966066e-002
6,151906e+002;2,289533e-002
6,171191e+002;2,889903e-002
6,190476e+002;2,970814e-002
6,209761e+002;2,193731e-002
6,229046e+002;1,979232e-002
6,248331e+002;2,341351e-002
6,267616e+002;2,566957e-002
6,286901e+002;2,512151e-002
6,306186e+002;2,621757e-002
6,325471e+002;2,819943e-002
6,344756e+002;2,445397e-002
6,364041e+002;2,477844e-002
6,383326e+002;2,875287e-002
6,402611e+002;2,893615e-002
6,421896e+002;2,529642e-002
6,441181e+002;2,330505e-002
6,460466e+002;2,189061e-002
6,479751e+002;2,054732e-002
6,499036e+002;1,969793e-002
6,518321e+002;2,007397e-002
6,537606e+002;2,132896e-002
6,556891e+002;2,254305e-002
6,576176e+002;2,382743e-002
6,595461e+002;2,432906e-002
6,614745e+002;2,414803e-002
6,634031e+002;2,533832e-002
6,653315e+002;2,620209e-002
6,672601e+002;2,567980e-002
6,691885e+002;2,566524e-002
6,711171e+002;2,684000e-002
6,730455e+002;2,715049e-002
6,749741e+002;2,729414e-002
6,769025e+002;2,777772e-002
6,788311e+002;2,885165e-002
6,807595e+002;2,910912e-002
6,826880e+002;2,764020e-002
6,846165e+002;2,625453e-002
6,865450e+002;2,639714e-002
6,884735e+002;2,681670e-002
6,904020e+002;2,660420e-002
6,923305e+002;2,746728e-002
6,942590e+002;2,749467e-002
6,961875e+002;2,767805e-002
6,981160e+002;2,841572e-002
7,000445e+002;2,948354e-002
7,019730e+002;3,046570e-002
7,039015e+002;3,108264e-002
7,058300e+002;3,236918e-002
7,077585e+002;3,297050e-002
7,096870e+002;3,175319e-002
7,116155e+002;2,780333e-002
7,135440e+002;2,373303e-002
7,154725e+002;2,251687e-002
7,174010e+002;2,250424e-002
7,193295e+002;2,119203e-002
7,212580e+002;2,011780e-002
7,231865e+002;2,194522e-002
7,251150e+002;2,457692e-002
7,270435e+002;2,587166e-002
7,289720e+002;2,655308e-002
7,309005e+002;2,679045e-002
7,328290e+002;2,692971e-002
7,347574e+002;2,762166e-002
7,366860e+002;2,767187e-002
7,386144e+002;2,791638e-002
7,405430e+002;2,765210e-002
7,424714e+002;2,612871e-002
7,444000e+002;2,463503e-002
7,463284e+002;2,273340e-002
7,482570e+002;2,292201e-002
7,501854e+002;2,428148e-002
7,521140e+002;2,468704e-002
7,540424e+002;2,388305e-002
7,559709e+002;2,273835e-002
7,578994e+002;2,144668e-002
7,598279e+002;2,068254e-002
7,617564e+002;2,066798e-002
7,636849e+002;2,226401e-002
7,656134e+002;2,491790e-002
7,675419e+002;2,694142e-002
7,694704e+002;2,724277e-002
7,713989e+002;2,489261e-002
7,733274e+002;2,062441e-002
7,752559e+002;1,791135e-002
7,771844e+002;1,512470e-002
7,791129e+002;1,211911e-002
7,810414e+002;1,028862e-002
7,829699e+002;1,034604e-002
7,848984e+002;1,092267e-002
7,868269e+002;1,215135e-002
7,887554e+002;1,361792e-002
7,906839e+002;1,422921e-002
7,926124e+002;1,455750e-002
7,945409e+002;1,515901e-002
7,964694e+002;1,620173e-002
7,983979e+002;1,706742e-002
8,003264e+002;1,651961e-002
8,022549e+002;1,646114e-002
8,041833e+002;1,710819e-002
8,061119e+002;1,762261e-002
8,080403e+002;1,738441e-002
8,099689e+002;1,825053e-002
8,118973e+002;1,966902e-002
8,138259e+002;1,947987e-002
8,157543e+002;1,891026e-002
8,176829e+002;1,810428e-002
8,196113e+002;1,747926e-002
8,215399e+002;1,766413e-002
8,234683e+002;1,790987e-002
8,253969e+002;1,851123e-002
8,273253e+002;1,934755e-002
8,292538e+002;2,034285e-002
8,311823e+002;2,048184e-002
8,331108e+002;1,946331e-002
8,350393e+002;1,769111e-002
8,369678e+002;1,818743e-002
8,388963e+002;2,015247e-002
8,408248e+002;2,233067e-002
8,427533e+002;2,334819e-002
8,446818e+002;2,419995e-002
8,466103e+002;2,307367e-002
8,485388e+002;2,161115e-002
8,504673e+002;2,038803e-002
8,523958e+002;1,944366e-002
8,543243e+002;1,812853e-002
8,562528e+002;1,729531e-002
8,581813e+002;1,683851e-002
8,601098e+002;1,622908e-002
8,620383e+002;1,597249e-002
8,639668e+002;1,649090e-002
8,658953e+002;1,703041e-002
8,678238e+002;1,762306e-002
8,697523e+002;1,002623e-002
8,716808e+002;4,880932e-003
8,736093e+002;1,243320e-002
8,755378e+002;1,565336e-002
8,774662e+002;1,626275e-002
8,793948e+002;1,689266e-002
8,813232e+002;1,724804e-002
8,832518e+002;1,692363e-002
8,851802e+002;1,824469e-002
8,871088e+002;1,909767e-002
8,890372e+002;1,926961e-002
8,909658e+002;1,944598e-002
8,928942e+002;2,022394e-002
8,948228e+002;2,027990e-002
8,967512e+002;1,960977e-002
8,986797e+002;1,940970e-002
9,006082e+002;1,953054e-002
9,025367e+002;1,941649e-002
9,044652e+002;2,010427e-002
9,063937e+002;2,074718e-002
9,083222e+002;2,070068e-002
9,102507e+002;2,035956e-002
9,121792e+002;2,071448e-002
9,141077e+002;2,135287e-002
9,160362e+002;2,134138e-002
9,179647e+002;2,168778e-002
9,198932e+002;2,251719e-002
9,218217e+002;2,250616e-002
9,237502e+002;2,182677e-002
9,256787e+002;2,195051e-002
9,276072e+002;2,225247e-002
9,295357e+002;2,226492e-002
9,314642e+002;2,242528e-002
9,333927e+002;2,271412e-002
9,353212e+002;2,279261e-002
9,372497e+002;2,279750e-002
9,391782e+002;2,304355e-002
9,411067e+002;2,329721e-002
9,430352e+002;2,304393e-002
9,449637e+002;2,239831e-002
9,468922e+002;2,277334e-002
9,488207e+002;2,377661e-002
9,507491e+002;2,420446e-002
9,526777e+002;2,480103e-002
9,546061e+002;2,562306e-002
9,565347e+002;2,610859e-002
9,584631e+002;2,637324e-002
9,603917e+002;2,601827e-002
9,623201e+002;2,573116e-002
9,642487e+002;2,652353e-002
9,661771e+002;2,879985e-002
9,681057e+002;3,111005e-002
9,700341e+002;3,221731e-002
9,719626e+002;3,236497e-002
9,738911e+002;3,098364e-002
9,758196e+002;2,827280e-002
9,777481e+002;2,608406e-002
9,796766e+002;2,399936e-002
9,816051e+002;2,271182e-002
9,835336e+002;2,226607e-002
9,854621e+002;2,180413e-002
9,873906e+002;2,142123e-002
9,893191e+002;2,123699e-002
9,912476e+002;2,112862e-002
9,931761e+002;2,084621e-002
9,951046e+002;2,083227e-002
9,970331e+002;2,070746e-002
9,989616e+002;2,005596e-002
1,000890e+003;1,927525e-002
1,002819e+003;1,833848e-002
1,004747e+003;1,721832e-002
1,006676e+003;1,595706e-002
1,008604e+003;1,516847e-002
1,010533e+003;1,495072e-002
1,012461e+003;1,510092e-002
1,014390e+003;1,546417e-002
1,016318e+003;1,608515e-002
1,018247e+003;1,682739e-002
1,020175e+003;1,749658e-002
1,022104e+003;1,780302e-002
1,024032e+003;1,818612e-002
1,025961e+003;1,839410e-002
1,027889e+003;1,729903e-002
1,029818e+003;1,533451e-002
1,031746e+003;1,541895e-002
1,033675e+003;1,829269e-002
1,035603e+003;2,188698e-002
1,037531e+003;2,435994e-002
1,039460e+003;2,623454e-002
1,041389e+003;2,775536e-002
1,043317e+003;2,943769e-002
1,045245e+003;3,101517e-002
1,047174e+003;3,201053e-002
1,049103e+003;3,239328e-002
1,051031e+003;3,245172e-002
1,052959e+003;3,218916e-002
1,054888e+003;3,192921e-002
1,056817e+003;3,177240e-002
1,058745e+003;3,226164e-002
1,060673e+003;3,300085e-002
1,062602e+003;3,372518e-002
1,064531e+003;3,359507e-002
1,066459e+003;3,301966e-002
1,068387e+003;3,200307e-002
1,070316e+003;3,104111e-002
1,072245e+003;2,924385e-002
1,074173e+003;2,766470e-002
1,076101e+003;2,719211e-002
1,078030e+003;2,737265e-002
1,079958e+003;2,715994e-002
1,081887e+003;2,697131e-002
1,083815e+003;2,588359e-002
1,085744e+003;2,423698e-002
1,087672e+003;2,332358e-002
1,089601e+003;2,351962e-002
1,091529e+003;2,359311e-002
1,093458e+003;2,433922e-002
1,095386e+003;2,576505e-002
1,097315e+003;2,724852e-002
1,099243e+003;2,781220e-002
1,101172e+003;2,801473e-002
1,103100e+003;2,840586e-002
1,105029e+003;2,939252e-002
1,106957e+003;3,058656e-002
1,108886e+003;3,158721e-002
1,110814e+003;3,253857e-002
1,112743e+003;3,338949e-002
1,114671e+003;3,300461e-002
1,116600e+003;3,256189e-002
1,118528e+003;3,332773e-002
1,120457e+003;3,389893e-002
1,122385e+003;3,363806e-002
1,124314e+003;3,302105e-002
1,126242e+003;3,413123e-002
1,128171e+003;3,512634e-002
1,130099e+003;3,415733e-002
1,132028e+003;3,293065e-002
1,133956e+003;3,223969e-002
1,135885e+003;3,196705e-002
1,137813e+003;3,114931e-002
1,139742e+003;3,149892e-002
1,141670e+003;3,134048e-002
1,143599e+003;3,089493e-002
1,145527e+003;3,128300e-002
1,147456e+003;3,259375e-002
1,149384e+003;3,210520e-002
1,151313e+003;3,052712e-002
1,153241e+003;3,016160e-002
1,155170e+003;2,929759e-002
1,157098e+003;2,642919e-002
1,159027e+003;2,348317e-002
1,160955e+003;2,233489e-002
1,162884e+003;2,175434e-002
1,164812e+003;2,080811e-002
1,166741e+003;1,957428e-002
1,168669e+003;1,879537e-002
1,170598e+003;1,892600e-002
1,172526e+003;1,847703e-002
1,174455e+003;1,796964e-002
1,176383e+003;1,839887e-002
1,178312e+003;1,874327e-002
1,180240e+003;1,882305e-002
1,182169e+003;1,833157e-002
1,184097e+003;1,773639e-002
1,186026e+003;1,739693e-002
1,187954e+003;1,747706e-002
1,189883e+003;1,847070e-002
1,191811e+003;1,986710e-002
1,193740e+003;2,069310e-002
1,195668e+003;2,068376e-002
1,197597e+003;2,073745e-002
1,199525e+003;2,065561e-002
1,201454e+003;1,930657e-002
1,203382e+003;1,792983e-002
1,205311e+003;1,682808e-002
1,207239e+003;1,546537e-002
1,209168e+003;1,395649e-002
1,211096e+003;1,229492e-002
1,213025e+003;1,067412e-002
1,214953e+003;9,192630e-003
1,216882e+003;8,459062e-003
1,218810e+003;8,137102e-003
1,220739e+003;8,036001e-003
1,222667e+003;7,839064e-003
1,224596e+003;7,548141e-003
1,226524e+003;8,211450e-003
1,228453e+003;9,345084e-003
1,230381e+003;1,049581e-002
1,232310e+003;1,105282e-002
1,234238e+003;1,135845e-002
1,236167e+003;1,211390e-002
1,238095e+003;1,316043e-002
1,240024e+003;1,456007e-002
1,241952e+003;1,594767e-002
1,243881e+003;1,709671e-002
1,245809e+003;1,790200e-002
1,247738e+003;1,873773e-002
1,249666e+003;1,904632e-002
1,251595e+003;1,885810e-002
1,253523e+003;1,815337e-002
1,255452e+003;1,729282e-002
1,257380e+003;1,619176e-002
1,259309e+003;1,502346e-002
1,261237e+003;1,377057e-002
1,263166e+003;1,310579e-002
1,265094e+003;1,260784e-002
1,267023e+003;1,249614e-002
1,268951e+003;1,259897e-002
1,270880e+003;1,271581e-002
1,272808e+003;1,327018e-002
1,274737e+003;1,381975e-002
1,276665e+003;1,421172e-002
1,278594e+003;1,381329e-002
1,280522e+003;1,330667e-002
1,282451e+003;1,290593e-002
1,284379e+003;1,224622e-002
1,286308e+003;1,138712e-002
1,288236e+003;1,069229e-002
1,290165e+003;1,041594e-002
1,292093e+003;1,007717e-002
1,294022e+003;9,839543e-003
1,295950e+003;1,004566e-002
1,297879e+003;1,011590e-002
1,299807e+003;9,940252e-003
1,301736e+003;9,815344e-003
1,303664e+003;9,402134e-003
1,305593e+003;7,898075e-003
1,307521e+003;6,947588e-003
1,309450e+003;7,023819e-003
1,311378e+003;6,329136e-003
1,313307e+003;5,503866e-003
1,315235e+003;5,069391e-003
1,317164e+003;4,880932e-003
1,319092e+003;4,713756e-003
1,321021e+003;4,431949e-003
1,322949e+003;4,147480e-003
1,324878e+003;4,078943e-003
1,326806e+003;4,016669e-003
1,328735e+003;4,157918e-003
1,330663e+003;4,414610e-003
1,332592e+003;4,317216e-003
1,334520e+003;4,244167e-003
1,336449e+003;4,214691e-003
1,338377e+003;3,894490e-003
1,340306e+003;4,087271e-003
1,342234e+003;4,444970e-003
1,344163e+003;4,361961e-003
1,346091e+003;4,423848e-003
1,348020e+003;4,615458e-003
1,349948e+003;4,821693e-003
1,351877e+003;5,170039e-003
1,353805e+003;5,520108e-003
1,355734e+003;5,618511e-003
1,357662e+003;5,829454e-003
1,359591e+003;6,220858e-003
1,361519e+003;6,465522e-003
1,363448e+003;6,668634e-003
1,365376e+003;7,132264e-003
1,367305e+003;7,269408e-003
1,369233e+003;7,478121e-003
1,371161e+003;7,420246e-003
1,373090e+003;7,317356e-003
1,375019e+003;7,834340e-003
1,376947e+003;8,868976e-003
1,378875e+003;9,851847e-003
1,380804e+003;1,046509e-002
1,382733e+003;1,071990e-002
1,384661e+003;1,071986e-002
1,386589e+003;1,057647e-002
1,388518e+003;1,090296e-002
1,390447e+003;1,098098e-002
1,392375e+003;1,039969e-002
1,394303e+003;9,213950e-003
1,396232e+003;7,647477e-003
1,398161e+003;6,903787e-003
1,400089e+003;6,420560e-003
1,402017e+003;6,032739e-003
1,403946e+003;5,502524e-003
1,405875e+003;5,443435e-003
1,407803e+003;5,590216e-003
1,409731e+003;5,454440e-003
1,411660e+003;5,436859e-003
1,413589e+003;5,904919e-003
1,415517e+003;6,682631e-003
1,417445e+003;7,536914e-003
1,419374e+003;9,343290e-003
1,421302e+003;1,116853e-002
1,423231e+003;1,258267e-002
1,425159e+003;1,481795e-002
1,427088e+003;1,638526e-002
1,429016e+003;1,706907e-002
1,430945e+003;1,704726e-002
1,432873e+003;1,709906e-002
1,434802e+003;1,677879e-002
1,436730e+003;1,740473e-002
1,438659e+003;1,826691e-002
1,440587e+003;1,849463e-002
1,442516e+003;1,812915e-002
1,444444e+003;1,683080e-002
1,446373e+003;1,517067e-002
1,448301e+003;1,410539e-002
1,450230e+003;1,392690e-002
1,452158e+003;1,365474e-002
1,454087e+003;1,327684e-002
1,456015e+003;1,319431e-002
1,457944e+003;1,238598e-002
1,459872e+003;1,193602e-002
1,461801e+003;1,163938e-002
1,463729e+003;1,115130e-002
1,465658e+003;1,126146e-002
1,467586e+003;1,128975e-002
1,469515e+003;1,115813e-002
1,471443e+003;1,075688e-002
1,473372e+003;1,000494e-002
1,475300e+003;1,005414e-002
1,477229e+003;9,674887e-003
1,479157e+003;9,210397e-003
1,481086e+003;8,574996e-003
1,483014e+003;7,924765e-003
1,484943e+003;7,235480e-003
1,486871e+003;6,669139e-003
1,488800e+003;6,540694e-003
1,490728e+003;6,768576e-003
1,492657e+003;6,802030e-003
1,494585e+003;6,439661e-003
1,496514e+003;5,263969e-003
1,498442e+003;3,789859e-003
1,500371e+003;3,324940e-003
1,502299e+003;2,934134e-003
1,504228e+003;2,195668e-003
1,506156e+003;8,769156e-004
1,508085e+003;6,266853e-004
1,510013e+003;9,144676e-004
1,511942e+003;1,125596e-003
1,513870e+003;1,215598e-003
1,515799e+003;8,982312e-004
1,517727e+003;5,761854e-004
1,519656e+003;6,906315e-004
1,521584e+003;9,941974e-004
1,523513e+003;1,029833e-003
1,525441e+003;1,023025e-003
1,527370e+003;1,196693e-003
1,529298e+003;1,158053e-003
1,531227e+003;9,069304e-004
1,533155e+003;1,018043e-003
1,535084e+003;1,144200e-003
1,537012e+003;1,001836e-003
1,538941e+003;9,482372e-004
1,540869e+003;-1,910089e-004
1,542798e+003;8,294075e-004
1,544726e+003;1,666223e-003
1,546655e+003;1,476109e-003
1,548583e+003;1,382163e-003
1,550512e+003;1,527046e-003
1,552440e+003;1,258729e-003
1,554369e+003;1,039830e-003
1,556297e+003;1,170711e-003
1,558226e+003;1,267003e-003
1,560154e+003;1,436015e-003
1,562083e+003;1,302429e-003
1,564011e+003;1,079057e-003
1,565940e+003;1,037373e-003
1,567868e+003;1,186526e-003
1,569797e+003;1,796860e-003
1,571725e+003;2,028890e-003
1,573654e+003;1,808971e-003
1,575582e+003;1,725332e-003
1,577511e+003;1,877384e-003
1,579439e+003;1,690637e-003
1,581368e+003;1,703111e-003
1,583296e+003;1,880180e-003
1,585225e+003;1,898782e-003
1,587153e+003;2,065044e-003
1,589082e+003;2,344886e-003
1,591010e+003;2,104696e-003
1,592939e+003;1,999064e-003
1,594867e+003;1,979592e-003
1,596796e+003;2,022033e-003
1,598724e+003;2,102599e-003
1,600653e+003;2,170259e-003
1,602581e+003;2,241860e-003
1,604510e+003;2,761504e-003
1,606438e+003;3,137970e-003
1,608367e+003;3,065420e-003
1,610295e+003;2,765405e-003
1,612224e+003;2,988979e-003
1,614152e+003;3,093718e-003
1,616081e+003;3,065654e-003
1,618009e+003;3,551942e-003
1,619938e+003;4,133899e-003
1,621866e+003;4,197427e-003
1,623795e+003;4,043624e-003
1,625723e+003;3,875868e-003
1,627652e+003;4,157650e-003
1,629580e+003;4,365441e-003
1,631509e+003;4,421137e-003
1,633437e+003;4,456017e-003
1,635366e+003;4,161765e-003
1,637294e+003;4,329564e-003
1,639223e+003;4,503991e-003
1,641151e+003;4,361894e-003
1,643080e+003;4,765778e-003
1,645008e+003;5,012071e-003
1,646937e+003;5,130106e-003
1,648865e+003;5,414883e-003
1,650794e+003;5,612839e-003
1,652722e+003;6,032269e-003
1,654651e+003;6,632162e-003
1,656579e+003;6,836092e-003
1,658508e+003;7,237299e-003
1,660436e+003;7,127245e-003
1,662365e+003;7,543657e-003
1,664293e+003;8,566312e-003
1,666222e+003;9,352228e-003
1,668150e+003;9,835612e-003
1,670079e+003;1,058156e-002
1,672007e+003;1,139675e-002
1,673936e+003;1,241666e-002
1,675864e+003;1,383518e-002
1,677793e+003;1,491396e-002
1,679721e+003;1,563337e-002
1,681650e+003;1,657021e-002
1,683578e+003;1,640236e-002
1,685507e+003;1,984528e-002
1,687435e+003;2,172975e-002
1,689364e+003;2,422622e-002
1,691292e+003;2,669284e-002
1,693221e+003;2,933339e-002
1,695149e+003;3,250853e-002
1,697078e+003;3,845939e-002
1,699006e+003;4,038031e-002
1,700935e+003;4,563992e-002
1,702863e+003;4,776312e-002
1,704792e+003;4,994715e-002
1,706720e+003;5,130092e-002
1,708649e+003;5,151702e-002
1,710577e+003;4,893719e-002
1,712505e+003;4,633975e-002
1,714434e+003;4,103675e-002
1,716363e+003;3,452264e-002
1,718291e+003;2,520613e-002
1,720219e+003;2,366711e-002
1,722148e+003;2,142976e-002
1,724077e+003;1,694692e-002
1,726005e+003;1,446339e-002
1,727933e+003;1,348303e-002
1,729862e+003;1,343412e-002
1,731791e+003;1,199872e-002
1,733719e+003;9,021858e-003
1,735647e+003;7,795747e-003
1,737576e+003;7,825400e-003
1,739505e+003;7,599661e-003
1,741433e+003;5,610321e-003
1,743361e+003;4,515341e-003
1,745290e+003;5,398411e-003
1,747219e+003;4,988441e-003
1,749147e+003;3,865104e-003
1,751075e+003;2,817761e-003
1,753004e+003;2,433742e-003
1,754932e+003;2,115750e-003
1,756861e+003;1,725199e-003
1,758789e+003;1,488743e-003
1,760718e+003;1,424247e-003
1,762646e+003;1,510089e-003
1,764575e+003;1,823145e-003
1,766503e+003;2,105029e-003
1,768432e+003;2,481226e-003
1,770360e+003;2,502854e-003
1,772289e+003;4,076902e-003
1,774217e+003;6,342383e-003
1,776146e+003;8,049604e-003
1,778074e+003;8,934789e-003
1,780003e+003;8,997738e-003
1,781931e+003;7,771729e-003
1,783860e+003;6,070974e-003
1,785788e+003;4,550530e-003
1,787717e+003;3,979885e-003
1,789645e+003;3,637737e-003
1,791574e+003;3,722146e-003
1,793502e+003;4,920072e-003
1,795431e+003;6,273767e-003
1,797359e+003;7,713376e-003
1,799288e+003;8,438791e-003
1,801216e+003;9,362656e-003
1,803145e+003;9,707888e-003
1,805073e+003;8,779909e-003
1,807002e+003;7,151261e-003
1,808930e+003;5,410589e-003
1,810859e+003;4,023893e-003
1,812787e+003;3,373656e-003
1,814716e+003;2,171225e-003
1,816644e+003;6,586074e-004
1,818573e+003;6,566164e-004
1,820501e+003;7,806101e-004
1,822430e+003;4,459480e-004
1,824358e+003;2,896012e-005
1,826287e+003;-3,932886e-004
1,828215e+003;-7,234421e-004
1,830144e+003;-4,395325e-004
1,832072e+003;-9,587932e-005
1,834001e+003;-2,818461e-004
1,835929e+003;-3,120768e-004
1,837858e+003;-1,233405e-004
1,839786e+003;-1,276467e-004
1,841715e+003;-2,801573e-004
1,843643e+003;-4,158981e-004
1,845572e+003;2,129715e-004
1,847500e+003;9,553594e-005
1,849429e+003;-2,008783e-004
1,851357e+003;-2,876407e-004
1,853286e+003;-3,683605e-004
1,855214e+003;-4,186787e-004
1,857143e+003;-4,763387e-004
1,859071e+003;-2,844951e-004
1,861000e+003;7,863419e-005
1,862928e+003;1,668619e-004
1,864857e+003;3,839612e-004
1,866785e+003;5,080762e-004
1,868714e+003;4,521173e-004
1,870642e+003;1,079973e-004
1,872571e+003;1,715025e-004
1,874499e+003;4,207410e-004
1,876428e+003;5,397242e-004
1,878356e+003;5,111613e-004
1,880285e+003;4,462465e-004
1,882213e+003;7,783883e-005
1,884142e+003;-1,382463e-004
1,886070e+003;-2,683849e-006
1,887999e+003;-8,908829e-005
1,889927e+003;6,593724e-006
1,891856e+003;1,608956e-004
1,893784e+003;1,639119e-004
1,895713e+003;2,316356e-004
1,897641e+003;8,970311e-005
1,899570e+003;8,837748e-005
1,901498e+003;-1,308775e-005
1,903427e+003;-1,459640e-004
1,905355e+003;-1,837888e-004
1,907284e+003;4,156334e-004
1,909212e+003;8,824491e-005
1,911141e+003;-3,555152e-004
1,913069e+003;-3,513768e-004
1,914998e+003;1,519793e-004
1,916926e+003;3,586915e-004
1,918855e+003;1,141618e-004
1,920783e+003;-5,042392e-004
1,922712e+003;-1,016786e-003
1,924640e+003;-8,096372e-004
1,926569e+003;-2,512159e-004
1,928497e+003;-1,415256e-004
1,930426e+003;-5,627482e-004
1,932354e+003;-7,956143e-004
1,934283e+003;-5,116856e-004
1,936211e+003;-4,679649e-004
1,938140e+003;-7,102104e-004
1,940068e+003;-7,418336e-004
1,941997e+003;-1,102857e-003
1,943925e+003;-1,217459e-003
1,945854e+003;-1,243011e-004
1,947782e+003;1,334513e-004
1,949711e+003;-5,340879e-005
1,951639e+003;-1,629558e-004
1,953568e+003;-8,842419e-004
1,955496e+003;-1,456282e-003
1,957425e+003;-1,504163e-003
1,959353e+003;-6,194627e-004
1,961282e+003;7,541962e-005
1,963210e+003;-4,624374e-004
1,965139e+003;-2,479706e-004
1,967067e+003;-3,906403e-004
1,968996e+003;-5,476254e-004
1,970924e+003;-2,429371e-004
1,972853e+003;-3,218442e-004
1,974781e+003;-4,869629e-004
1,976710e+003;-2,509179e-004
1,978638e+003;1,057102e-003
1,980567e+003;2,812992e-003
1,982495e+003;2,280330e-003
1,984424e+003;1,527744e-003
1,986352e+003;1,870230e-003
1,988281e+003;7,781538e-004
1,990209e+003;-1,603723e-004
1,992138e+003;8,224694e-004
1,994066e+003;1,584374e-003
1,995995e+003;1,140180e-003
1,997923e+003;1,980873e-004
1,999852e+003;-2,385658e-004
2,001780e+003;-5,420391e-005
2,003709e+003;-4,594254e-004
2,005637e+003;-9,009733e-004
2,007566e+003;-8,593751e-004
2,009494e+003;-8,761405e-004
2,011423e+003;-1,898166e-004
2,013351e+003;3,937446e-004
2,015280e+003;7,648767e-004
2,017208e+003;-8,217164e-006
2,019137e+003;-4,695205e-004
2,021065e+003;-5,906763e-004
2,022994e+003;-6,313738e-004
2,024922e+003;-1,189241e-003
2,026851e+003;-1,135740e-003
2,028779e+003;-1,012458e-004
2,030708e+003;1,026612e-003
2,032636e+003;1,014821e-003
2,034565e+003;7,292294e-004
2,036493e+003;9,482040e-004
2,038422e+003;1,556740e-003
2,040350e+003;1,481129e-003
2,042279e+003;1,097592e-003
2,044207e+003;7,146926e-004
2,046135e+003;7,623208e-004
2,048064e+003;1,536057e-003
2,049992e+003;2,637243e-003
2,051921e+003;1,460217e-003
2,053850e+003;1,107149e-004
2,055778e+003;-9,940201e-007
2,057707e+003;5,639780e-005
2,059635e+003;4,053522e-004
2,061563e+003;4,810081e-004
2,063492e+003;2,355475e-004
2,065420e+003;1,785629e-004
2,067349e+003;2,674409e-004
2,069278e+003;7,541556e-004
2,071206e+003;1,352249e-003
2,073135e+003;1,437212e-003
2,075063e+003;1,125729e-003
2,076991e+003;1,206361e-003
2,078920e+003;9,636453e-004
2,080848e+003;7,523632e-004
2,082777e+003;5,591654e-004
2,084706e+003;9,923376e-004
2,086634e+003;1,441833e-003
2,088563e+003;1,491203e-003
2,090491e+003;4,467440e-004
2,092419e+003;-6,054668e-004
2,094348e+003;-3,858401e-004
2,096276e+003;3,324948e-004
2,098205e+003;5,571748e-004
2,100134e+003;8,281461e-004
2,102062e+003;7,591012e-004
2,103990e+003;3,873108e-004
2,105919e+003;3,695354e-004
2,107847e+003;4,275732e-004
2,109776e+003;9,706045e-005
2,111704e+003;-1,230424e-004
2,113633e+003;6,401968e-005
2,115562e+003;8,307499e-005
2,117490e+003;-1,319860e-004
2,119418e+003;-4,150043e-004
2,121347e+003;-1,940890e-004
2,123275e+003;-3,418750e-004
2,125204e+003;-1,459122e-003
2,127132e+003;-1,642822e-003
2,129061e+003;-1,952798e-003
2,130990e+003;-2,396719e-003
2,132918e+003;-3,211969e-003
2,134846e+003;-2,765490e-003
2,136775e+003;-1,553953e-003
2,138703e+003;-1,408230e-003
2,140632e+003;-1,275641e-003
2,142560e+003;-1,876925e-003
2,144489e+003;-3,029655e-003
2,146417e+003;-2,961078e-003
2,148346e+003;-2,327515e-003
2,150274e+003;-2,271946e-003
2,152203e+003;-1,798102e-003
2,154131e+003;-2,693084e-003
2,156060e+003;-5,407696e-003
2,157988e+003;-3,240286e-003
2,159917e+003;1,474081e-003
2,161845e+003;2,379833e-003
2,163774e+003;1,774502e-003
2,165702e+003;1,758400e-003
2,167631e+003;1,780923e-003
2,169559e+003;1,335697e-003
2,171488e+003;7,326811e-004
2,173416e+003;-8,184031e-006
2,175345e+003;1,041624e-003
2,177273e+003;1,418230e-003
2,179202e+003;7,359694e-005
2,181130e+003;-5,337594e-004
2,183059e+003;1,252979e-004
2,184987e+003;7,365312e-004
2,186916e+003;8,410268e-004
2,188844e+003;1,086631e-003
2,190773e+003;1,858483e-003
2,192701e+003;2,023730e-003
2,194630e+003;1,956792e-003
2,196558e+003;1,082877e-003
2,198487e+003;9,688921e-004
2,200415e+003;6,573133e-004
2,202344e+003;-2,597594e-004
2,204272e+003;-1,019415e-004
2,206201e+003;4,723174e-004
2,208129e+003;4,804773e-004
2,210058e+003;-1,398694e-004
2,211986e+003;4,387837e-004
2,213915e+003;8,486956e-004
2,215843e+003;7,899873e-005
2,217772e+003;2,741713e-004
2,219700e+003;6,777220e-004
2,221629e+003;3,192644e-004
2,223557e+003;6,183252e-005
2,225486e+003;4,257159e-004
2,227414e+003;3,522583e-004
2,229343e+003;5,672938e-004
2,231271e+003;7,842283e-004
2,233200e+003;5,905517e-004
2,235128e+003;5,258690e-005
2,237057e+003;2,174469e-004
2,238985e+003;2,212924e-004
2,240914e+003;6,991845e-005
2,242842e+003;5,315632e-004
2,244771e+003;9,766961e-004
2,246699e+003;1,304091e-003
2,248628e+003;1,061951e-003
2,250556e+003;3,006629e-004
2,252485e+003;1,420357e-004
2,254413e+003;8,072323e-004
2,256342e+003;1,253977e-003
2,258270e+003;8,187513e-004
2,260199e+003;1,004160e-003
2,262127e+003;5,818257e-004
2,264056e+003;-2,934353e-004
2,265984e+003;-3,091299e-004
2,267913e+003;7,024473e-006
2,269841e+003;7,113405e-004
2,271770e+003;9,729767e-004
2,273698e+003;8,266190e-004
2,275627e+003;7,105440e-004
2,277555e+003;6,714831e-004
2,279484e+003;6,346158e-004
2,281412e+003;1,022825e-003
2,283341e+003;1,486615e-003
2,285269e+003;2,068340e-003
2,287198e+003;2,393427e-003
2,289126e+003;2,265141e-003
2,291055e+003;2,033684e-003
2,292983e+003;1,548493e-003
2,294912e+003;1,488677e-003
2,296840e+003;1,535725e-003
2,298769e+003;1,572203e-003
2,300697e+003;1,607986e-003
2,302626e+003;1,180113e-003
2,304554e+003;6,523356e-004
2,306483e+003;5,877315e-004
2,308411e+003;1,042720e-003
2,310340e+003;1,373488e-003
2,312268e+003;1,326524e-003
2,314197e+003;1,234571e-003
2,316125e+003;1,270659e-003
2,318054e+003;1,429799e-003
2,319982e+003;1,493032e-003
2,321911e+003;1,619526e-003
2,323839e+003;1,991009e-003
2,325768e+003;1,339087e-003
2,327696e+003;4,565619e-004
2,329625e+003;-5,529200e-004
2,331553e+003;-9,009403e-004
2,333482e+003;-1,573135e-003
2,335410e+003;-9,694794e-004
2,337339e+003;4,675465e-005
2,339267e+003;-1,623265e-004
2,341196e+003;-5,458053e-004
2,343124e+003;-6,419612e-004
2,345053e+003;1,272366e-005
2,346981e+003;8,216726e-004
2,348910e+003;3,794842e-004
2,350838e+003;-7,195057e-004
2,352767e+003;-1,102592e-003
2,354695e+003;-8,917811e-004
2,356624e+003;-1,310658e-003
2,358552e+003;-5,505044e-004
2,360481e+003;-4,942442e-004
2,362409e+003;-1,526714e-003
2,364338e+003;-8,282234e-004
2,366266e+003;-1,065046e-003
2,368195e+003;-1,275542e-003
2,370123e+003;-1,272767e-003
2,372052e+003;-2,781374e-004
2,373980e+003;-5,271738e-004
2,375909e+003;-8,024604e-004
2,377837e+003;-6,687262e-004
2,379766e+003;-1,749456e-004
2,381694e+003;3,552114e-005
2,383623e+003;-2,211134e-004
2,385551e+003;-7,547006e-004
2,387479e+003;-9,464358e-004
2,389408e+003;-3,615406e-004
2,391337e+003;8,290928e-005
2,393265e+003;-7,683104e-005
2,395194e+003;-4,327137e-004
2,397122e+003;-4,082845e-004
2,399051e+003;-3,337965e-004
2,400979e+003;-6,431523e-004
2,402907e+003;-7,613489e-004
2,404836e+003;-9,756879e-005
2,406765e+003;6,286762e-004
2,408693e+003;5,568430e-004
2,410622e+003;-2,070384e-004
2,412550e+003;-6,244257e-004
2,414479e+003;-3,613751e-004
2,416407e+003;-1,815707e-005
2,418335e+003;1,457900e-006
2,420264e+003;-3,382331e-004
2,422193e+003;-1,738195e-004
2,424121e+003;-6,440780e-005
2,426050e+003;-1,106205e-004
2,427978e+003;-3,965328e-004
2,429906e+003;-6,257823e-004
2,431835e+003;-2,409833e-004
2,433763e+003;6,441735e-005
2,435692e+003;3,852878e-004
2,437621e+003;2,186071e-004
2,439549e+003;-6,844953e-005
2,441478e+003;-1,694807e-004
2,443406e+003;-1,039622e-004
2,445334e+003;-1,396044e-004
2,447263e+003;-1,037303e-004
2,449191e+003;3,197552e-005
2,451120e+003;7,478997e-005
2,453049e+003;-6,619676e-005
2,454977e+003;-1,532179e-004
2,456906e+003;1,269052e-005
2,458834e+003;1,703755e-004
2,460762e+003;-8,282720e-005
2,462691e+003;-6,103638e-004
2,464619e+003;-2,400891e-004
2,466548e+003;1,178738e-004
2,468477e+003;2,103858e-004
2,470405e+003;3,079244e-004
2,472333e+003;4,042372e-006
2,474262e+003;-5,334547e-006
2,476190e+003;8,771466e-005
2,478119e+003;-9,074465e-005
2,480047e+003;-2,326049e-004
2,481976e+003;5,374674e-005
2,483905e+003;3,311353e-004
2,485833e+003;5,503405e-004
2,487761e+003;4,846900e-004
2,489690e+003;-1,332778e-004
2,491618e+003;-3,434310e-004
2,493547e+003;-3,835228e-004
2,495475e+003;-6,912221e-004
2,497404e+003;-4,717050e-004
2,499333e+003;1,013913e-005
2,501261e+003;2,636945e-004
2,503189e+003;-1,131711e-004
2,505118e+003;-2,826408e-004
2,507046e+003;-3,011503e-004
2,508975e+003;-1,983613e-004
2,510903e+003;-1,256924e-004
2,512832e+003;-2,744619e-004
2,514760e+003;-4,836532e-004
2,516689e+003;-2,696605e-004
2,518617e+003;3,708619e-004
2,520546e+003;5,387622e-004
2,522474e+003;1,887394e-004
2,524403e+003;1,332524e-004
2,526331e+003;-3,137654e-004
2,528260e+003;-1,553046e-004
2,530188e+003;3,276204e-004
2,532117e+003;2,753980e-004
2,534045e+003;5,068157e-004
2,535974e+003;1,993138e-004
2,537902e+003;-5,907397e-005
2,539831e+003;1,222663e-005
2,541759e+003;1,042522e-004
2,543688e+003;5,774461e-004
2,545616e+003;8,366446e-004
2,547545e+003;4,391486e-004
2,549473e+003;4,754995e-005
2,551402e+003;2,460236e-004
2,553330e+003;6,163368e-005
2,555259e+003;-2,166095e-004
2,557187e+003;-5,334547e-006
2,559116e+003;4,813729e-004
2,561044e+003;6,076725e-004
2,562973e+003;2,993367e-004
2,564901e+003;5,170993e-004
2,566830e+003;4,911916e-004
2,568758e+003;5,209475e-004
2,570687e+003;4,839603e-004
2,572615e+003;5,596631e-004
2,574544e+003;6,762287e-004
2,576472e+003;2,532510e-004
2,578401e+003;2,017669e-004
2,580329e+003;3,382977e-004
2,582258e+003;3,909256e-004
2,584186e+003;2,082642e-004
2,586115e+003;4,179882e-004
2,588043e+003;7,545539e-004
2,589972e+003;8,446122e-004
2,591900e+003;6,015010e-004
2,593829e+003;8,721347e-004
2,595757e+003;8,584230e-004
2,597686e+003;6,499796e-004
2,599614e+003;3,464883e-004
2,601543e+003;3,553091e-004
2,603471e+003;4,684697e-004
2,605400e+003;8,113817e-004
2,607328e+003;1,045742e-003
2,609257e+003;8,202452e-004
2,611185e+003;9,027136e-004
2,613114e+003;1,315457e-003
2,615042e+003;1,185330e-003
2,616971e+003;8,919227e-004
2,618899e+003;7,568441e-004
2,620828e+003;8,463718e-004
2,622756e+003;8,341880e-004
2,624685e+003;7,095152e-004
2,626613e+003;8,160292e-004
2,628542e+003;1,287773e-003
2,630470e+003;1,190446e-003
2,632399e+003;8,047758e-004
2,634327e+003;6,774566e-004
2,636256e+003;7,076898e-004
2,638184e+003;8,985300e-004
2,640113e+003;9,645087e-004
2,642041e+003;8,533767e-004
2,643970e+003;8,361799e-004
2,645898e+003;8,289428e-004
2,647827e+003;8,385369e-004
2,649755e+003;7,381575e-004
2,651684e+003;8,344204e-004
2,653612e+003;9,015182e-004
2,655541e+003;8,083941e-004
2,657469e+003;5,871675e-004
2,659398e+003;7,466543e-004
2,661326e+003;9,215400e-004
2,663255e+003;8,629714e-004
2,665183e+003;6,420156e-004
2,667112e+003;4,379546e-004
2,669040e+003;3,829332e-004
2,670969e+003;2,365421e-004
2,672897e+003;6,753243e-005
2,674826e+003;1,469080e-004
2,676754e+003;1,563214e-004
2,678683e+003;-2,779857e-005
2,680611e+003;-1,283092e-004
2,682540e+003;-3,518692e-005
2,684468e+003;1,554596e-004
2,686397e+003;1,627186e-004
2,688325e+003;-1,381667e-005
2,690254e+003;1,777674e-004
2,692182e+003;1,351890e-005
2,694111e+003;-3,260490e-004
2,696039e+003;-5,136383e-004
2,697968e+003;-3,068453e-004
2,699896e+003;3,578624e-005
2,701825e+003;3,773286e-004
2,703753e+003;2,661810e-004
2,705682e+003;1,670277e-004
2,707610e+003;5,254259e-004
2,709539e+003;6,918939e-005
2,711467e+003;-2,895612e-004
2,713396e+003;-1,203924e-004
2,715324e+003;1,369977e-004
2,717253e+003;3,500033e-004
2,719181e+003;1,302363e-004
2,721110e+003;1,209409e-005
2,723038e+003;2,421779e-004
2,724967e+003;1,934796e-004
2,726895e+003;4,317580e-005
2,728823e+003;2,618378e-004
2,730752e+003;9,719301e-005
2,732681e+003;-1,339071e-004
2,734609e+003;7,124403e-005
2,736538e+003;2,969162e-004
2,738466e+003;2,917438e-004
2,740395e+003;2,937332e-004
2,742323e+003;1,779994e-004
2,744251e+003;-7,289428e-006
2,746180e+003;1,018328e-004
2,748109e+003;1,324569e-004
2,750037e+003;2,115129e-004
2,751966e+003;1,680221e-004
2,753894e+003;-2,596270e-004
2,755823e+003;-2,195569e-004
2,757751e+003;2,105847e-004
2,759679e+003;2,793767e-004
2,761608e+003;3,455266e-004
2,763537e+003;4,188505e-004
2,765465e+003;2,223532e-004
2,767394e+003;2,534828e-005
2,769322e+003;-2,624137e-005
2,771250e+003;1,840655e-004
2,773179e+003;3,766322e-004
2,775107e+003;1,219504e-004
2,777036e+003;1,332009e-005
2,778965e+003;2,099549e-004
2,780893e+003;5,817261e-004
2,782822e+003;5,964244e-004
2,784750e+003;6,171622e-004
2,786678e+003;4,753359e-004
2,788607e+003;6,832776e-005
2,790535e+003;2,871019e-004
2,792464e+003;6,962069e-004
2,794393e+003;6,963396e-004
2,796321e+003;4,121842e-004
2,798250e+003;3,728185e-004
2,800178e+003;3,211876e-004
2,802106e+003;2,270275e-004
2,804035e+003;1,159707e-005
2,805963e+003;8,612391e-005
2,807892e+003;2,509966e-004
2,809821e+003;1,405442e-004
2,811749e+003;2,641255e-004
2,813677e+003;4,287673e-004
2,815606e+003;2,255688e-004
2,817534e+003;1,579124e-004
2,819463e+003;5,415489e-004
2,821391e+003;8,986960e-004
2,823320e+003;1,001636e-003
2,825249e+003;7,624536e-004
2,827177e+003;8,978992e-004
2,829105e+003;1,299538e-003
2,831034e+003;1,222410e-003
2,832962e+003;1,174266e-003
2,834891e+003;1,601135e-003
2,836819e+003;1,597377e-003
2,838748e+003;1,237363e-003
2,840677e+003;1,393565e-003
2,842605e+003;1,469559e-003
2,844533e+003;1,289701e-003
2,846462e+003;1,366142e-003
2,848390e+003;1,546265e-003
2,850319e+003;1,661999e-003
2,852247e+003;1,888433e-003
2,854176e+003;1,645468e-003
2,856104e+003;1,442730e-003
2,858033e+003;1,704874e-003
2,859961e+003;1,938087e-003
2,861890e+003;1,583543e-003
2,863818e+003;1,408690e-003
2,865747e+003;1,949669e-003
2,867675e+003;2,162334e-003
2,869604e+003;2,240262e-003
2,871532e+003;2,207590e-003
2,873461e+003;2,046134e-003
2,875389e+003;2,129302e-003
2,877318e+003;2,055789e-003
2,879246e+003;1,960553e-003
2,881175e+003;2,200197e-003
2,883103e+003;2,739530e-003
2,885032e+003;2,700353e-003
2,886960e+003;2,323333e-003
2,888889e+003;2,208123e-003
2,890817e+003;2,368606e-003
2,892746e+003;2,444172e-003
2,894674e+003;2,537147e-003
2,896603e+003;2,478560e-003
2,898531e+003;3,014135e-003
2,900460e+003;3,598011e-003
2,902388e+003;3,438877e-003
2,904317e+003;3,337494e-003
2,906245e+003;3,641747e-003
2,908174e+003;3,629718e-003
2,910102e+003;3,428624e-003
2,912031e+003;3,579202e-003
2,913959e+003;3,980788e-003
2,915888e+003;4,180800e-003
2,917816e+003;4,357610e-003
2,919745e+003;4,232557e-003
2,921673e+003;3,954974e-003
2,923602e+003;4,024328e-003
2,925530e+003;4,632604e-003
2,927459e+003;4,980162e-003
2,929387e+003;5,186805e-003
2,931316e+003;5,448535e-003
2,933244e+003;5,433101e-003
2,935173e+003;5,269134e-003
2,937101e+003;5,721267e-003
2,939030e+003;6,338079e-003
2,940958e+003;5,925206e-003
2,942887e+003;5,270778e-003
2,944815e+003;5,213934e-003
2,946744e+003;4,840054e-003
2,948672e+003;4,325883e-003
2,950601e+003;4,430710e-003
2,952529e+003;4,701296e-003
2,954458e+003;5,801481e-003
2,956386e+003;6,781096e-003
2,958315e+003;6,804083e-003
2,960243e+003;6,439358e-003
2,962172e+003;6,000218e-003
2,964100e+003;6,018729e-003
2,966029e+003;6,067077e-003
2,967957e+003;5,189957e-003
2,969886e+003;4,311527e-003
2,971814e+003;4,039411e-003
2,973743e+003;3,640377e-003
2,975671e+003;3,500266e-003
2,977600e+003;3,640176e-003
2,979528e+003;3,825825e-003
2,981457e+003;3,841035e-003
2,983385e+003;3,841971e-003
2,985314e+003;3,608502e-003
2,987242e+003;3,306276e-003
2,989171e+003;3,488007e-003
2,991099e+003;3,632525e-003
2,993028e+003;3,514629e-003
2,994956e+003;3,432565e-003
2,996885e+003;3,456611e-003
2,998813e+003;3,734846e-003
3,000742e+003;4,168723e-003
3,002670e+003;4,273378e-003
3,004599e+003;4,511289e-003
3,006527e+003;4,627045e-003
3,008456e+003;4,429539e-003
3,010384e+003;4,242695e-003
3,012313e+003;3,818839e-003
3,014241e+003;3,494587e-003
3,016170e+003;3,474313e-003
3,018098e+003;3,085609e-003
3,020027e+003;3,045533e-003
3,021955e+003;3,245515e-003
3,023884e+003;2,893071e-003
3,025812e+003;2,350450e-003
3,027741e+003;2,116949e-003
3,029669e+003;1,707070e-003
3,031598e+003;1,458322e-003
3,033526e+003;1,728393e-003
3,035455e+003;1,663263e-003
3,037383e+003;1,428967e-003
3,039312e+003;1,622786e-003
3,041240e+003;1,445024e-003
3,043169e+003;1,359129e-003
3,045097e+003;9,078601e-004
3,047026e+003;3,208891e-004
3,048954e+003;4,671429e-004
3,050883e+003;4,430955e-004
3,052811e+003;6,472585e-004
3,054740e+003;1,007050e-003
3,056668e+003;3,681095e-004
3,058597e+003;3,894996e-004
3,060525e+003;1,015485e-003
3,062454e+003;1,108455e-003
3,064382e+003;1,089155e-003
3,066311e+003;1,174964e-003
3,068239e+003;1,392568e-003
3,070167e+003;9,217393e-004
3,072096e+003;-1,620224e-005
3,074025e+003;-5,307149e-004
3,075953e+003;-2,739321e-004
3,077882e+003;-3,347236e-004
3,079810e+003;-5,165837e-004
3,081739e+003;4,301011e-005
3,083667e+003;4,397124e-004
3,085595e+003;3,923248e-005
3,087524e+003;-3,278038e-004
3,089453e+003;-9,094342e-005
3,091381e+003;1,125378e-004
3,093310e+003;-6,762131e-005
3,095238e+003;-3,104544e-004
3,097167e+003;-2,727069e-004
3,099095e+003;-2,907533e-004
3,101023e+003;-2,690401e-005
3,102952e+003;-3,681036e-005
3,104881e+003;-3,288965e-004
3,106809e+003;-5,055630e-004
3,108738e+003;2,219986e-006
3,110666e+003;2,596828e-004
3,112594e+003;2,767906e-004
3,114523e+003;-1,597430e-004
3,116451e+003;-4,371492e-004
3,118380e+003;-6,977468e-005
3,120309e+003;1,483664e-004
3,122237e+003;-3,376371e-004
3,124166e+003;-2,308829e-004
3,126094e+003;2,352580e-005
3,128022e+003;5,331594e-005
3,129951e+003;1,746199e-005
3,131879e+003;-6,119189e-004
3,133808e+003;-1,020620e-003
3,135737e+003;-7,091187e-004
3,137665e+003;-1,278454e-004
3,139594e+003;-2,754884e-004
3,141522e+003;-2,058461e-004
3,143450e+003;-1,862093e-005
3,145379e+003;-5,171132e-004
3,147307e+003;-6,055330e-004
3,149236e+003;-1,626246e-004
3,151165e+003;-1,581200e-004
3,153093e+003;-3,268768e-004
3,155021e+003;-3,667383e-004
3,156950e+003;-6,141026e-004
3,158878e+003;-8,743880e-004
3,160807e+003;-5,460038e-004
3,162735e+003;-6,629035e-004
3,164664e+003;-7,790442e-004
3,166593e+003;-2,621436e-004
3,168521e+003;-2,642630e-004
3,170449e+003;-5,384918e-004
3,172378e+003;-6,975737e-004
3,174306e+003;-2,027756e-005
3,176235e+003;2,237787e-004
3,178163e+003;-3,280687e-004
3,180092e+003;-5,035111e-004
3,182021e+003;-6,400422e-004
3,183949e+003;-8,651951e-004
3,185877e+003;-1,213758e-003
3,187806e+003;-9,941746e-004
3,189734e+003;-5,880953e-004
3,191663e+003;-6,579741e-004
3,193591e+003;-6,172459e-004
3,195520e+003;-5,127446e-004
3,197448e+003;-5,714842e-004
3,199377e+003;-8,263053e-004
3,201305e+003;-9,510315e-004
3,203234e+003;-1,029645e-003
3,205162e+003;-1,156493e-003
3,207091e+003;-1,207546e-003
3,209019e+003;-1,162574e-003
3,210948e+003;-9,098348e-004
3,212876e+003;-1,154577e-003
3,214805e+003;-1,553689e-003
3,216733e+003;-1,488775e-003
3,218662e+003;-1,375302e-003
3,220590e+003;-1,259221e-003
3,222519e+003;-1,020092e-003
3,224447e+003;-1,304283e-003
3,226376e+003;-1,498285e-003
3,228304e+003;-1,747151e-003
3,230233e+003;-1,652626e-003
3,232161e+003;-1,374178e-003
3,234090e+003;-1,334244e-003
3,236018e+003;-1,271875e-003
3,237947e+003;-1,245312e-003
3,239875e+003;-1,098296e-003
3,241804e+003;-8,560682e-004
3,243732e+003;-1,148959e-003
3,245661e+003;-1,067161e-003
3,247589e+003;-1,080779e-003
3,249518e+003;-9,283175e-004
3,251446e+003;-1,449611e-003
3,253375e+003;-1,610736e-003
3,255303e+003;-1,558905e-003
3,257232e+003;-1,555175e-003
3,259160e+003;-1,639158e-003
3,261089e+003;-1,717713e-003
3,263017e+003;-1,318917e-003
3,264946e+003;-9,264660e-004
3,266874e+003;-1,023034e-003
3,268803e+003;-1,133295e-003
3,270731e+003;-1,102857e-003
3,272660e+003;-1,126817e-003
3,274588e+003;-1,037677e-003
3,276517e+003;-1,383162e-003
3,278445e+003;-2,031988e-003
3,280374e+003;-2,095931e-003
3,282302e+003;-2,102855e-003
3,284231e+003;-2,117462e-003
3,286159e+003;-2,281735e-003
3,288088e+003;-1,612684e-003
3,290016e+003;-1,158774e-003
3,291945e+003;-1,585350e-003
3,293873e+003;-1,688768e-003
3,295802e+003;-1,887746e-003
3,297730e+003;-1,394293e-003
3,299659e+003;-1,324533e-003
3,301587e+003;-1,725172e-003
3,303516e+003;-1,957383e-003
3,305444e+003;-1,556793e-003
3,307373e+003;-1,313268e-003
3,309301e+003;-1,702135e-003
3,311230e+003;-1,617504e-003
3,313158e+003;-1,468269e-003
3,315087e+003;-1,735535e-003
3,317015e+003;-1,634867e-003
3,318944e+003;-1,555406e-003
3,320872e+003;-1,520045e-003
3,322801e+003;-1,506276e-003
3,324729e+003;-2,062196e-003
3,326658e+003;-1,915358e-003
3,328586e+003;-1,349670e-003
3,330515e+003;-1,093239e-003
3,332443e+003;-1,497195e-003
3,334372e+003;-1,958504e-003
3,336300e+003;-2,686301e-003
3,338229e+003;-1,879333e-003
3,340157e+003;-9,875629e-004
3,342086e+003;-1,268307e-003
3,344014e+003;-1,601559e-003
3,345943e+003;-1,418370e-003
3,347871e+003;-1,717614e-003
3,349800e+003;-2,619876e-003
3,351728e+003;-2,460212e-003
3,353657e+003;-2,168798e-003
3,355585e+003;-2,307872e-003
3,357514e+003;-2,391546e-003
3,359442e+003;-2,585425e-003
3,361371e+003;-2,620239e-003
3,363299e+003;-2,878469e-003
3,365228e+003;-3,029063e-003
3,367156e+003;-2,612202e-003
3,369085e+003;-1,785364e-003
3,371013e+003;-2,205359e-003
3,372942e+003;-2,486108e-003
3,374870e+003;-2,612631e-003
3,376799e+003;-2,541682e-003
3,378727e+003;-2,905129e-003
3,380656e+003;-3,312173e-003
3,382584e+003;-2,547611e-003
3,384513e+003;-1,481511e-003
3,386441e+003;-1,635956e-003
3,388370e+003;-2,801638e-003
3,390298e+003;-3,058905e-003
3,392227e+003;-3,020310e-003
3,394155e+003;-3,215258e-003
3,396083e+003;-3,158684e-003
3,398012e+003;-2,903319e-003
3,399941e+003;-2,308432e-003
3,401869e+003;-2,112484e-003
3,403798e+003;-2,128541e-003
3,405726e+003;-1,565806e-003
3,407655e+003;-1,779590e-003
3,409583e+003;-3,556518e-003
3,411511e+003;-4,233346e-003
3,413440e+003;-2,789721e-003
3,415369e+003;-1,241744e-003
3,417297e+003;-1,038537e-003
3,419226e+003;-2,242280e-003
3,421154e+003;-2,292151e-003
3,423083e+003;-1,835519e-003
3,425011e+003;-2,408779e-003
3,426939e+003;-2,848746e-003
3,428868e+003;-2,745010e-003
3,430797e+003;-3,240089e-003
3,432725e+003;-3,114604e-003
3,434654e+003;-2,619909e-003
3,436582e+003;-2,625574e-003
3,438510e+003;-2,250290e-003
3,440439e+003;-1,960945e-003
3,442367e+003;-2,039211e-003
3,444296e+003;-3,232788e-003
3,446225e+003;-3,739761e-003
3,448153e+003;-3,347323e-003
3,450082e+003;-2,920203e-003
3,452010e+003;-2,678233e-003
3,453938e+003;-2,360536e-003
3,455867e+003;-1,821760e-003
3,457795e+003;-1,164193e-003
3,459724e+003;-2,130256e-003
3,461653e+003;-2,626134e-003
3,463581e+003;-1,940989e-003
3,465510e+003;-1,317827e-003
3,467438e+003;-1,729165e-003
3,469366e+003;-2,205359e-003
3,471295e+003;-1,344253e-003
3,473223e+003;-1,089306e-003
3,475152e+003;-2,313211e-003
3,477081e+003;-2,854111e-003
3,479009e+003;-2,758444e-003
3,480938e+003;-1,561018e-003
3,482866e+003;-1,348018e-003
3,484794e+003;-1,576965e-003
3,486723e+003;-1,247096e-003
3,488651e+003;-1,880686e-003
3,490580e+003;-2,079212e-003
3,492509e+003;-1,660251e-003
3,494437e+003;-1,212668e-003
3,496365e+003;-1,203681e-003
3,498294e+003;-2,454809e-003
3,500222e+003;-2,701679e-003
3,502151e+003;-2,276890e-003
3,504079e+003;-2,125706e-003
3,506008e+003;-1,957284e-003
3,507937e+003;-1,893882e-003
3,509865e+003;-1,175495e-003
3,511793e+003;-8,667163e-004
3,513722e+003;-2,459323e-003
3,515650e+003;-2,852564e-003
3,517579e+003;-1,462325e-003
3,519507e+003;-5,159217e-004
3,521436e+003;-1,370215e-003
3,523365e+003;-1,582049e-003
3,525293e+003;-6,956550e-004
3,527221e+003;-6,076506e-004
3,529150e+003;-1,871448e-003
3,531078e+003;-2,630745e-003
3,533007e+003;-2,091314e-003
3,534935e+003;-1,900678e-003
3,536864e+003;-1,928520e-003
3,538792e+003;-1,158344e-003
3,540721e+003;-1,577922e-003
3,542649e+003;-2,696805e-003
3,544578e+003;-3,040908e-003
3,546506e+003;-1,581025e-003
3,548435e+003;-1,155568e-003
3,550363e+003;-1,000885e-003
3,552292e+003;-3,116463e-004
3,554220e+003;-1,052452e-003
3,556149e+003;-1,965761e-003
3,558077e+003;-2,192964e-003
3,560006e+003;-9,923565e-004
3,561934e+003;-4,300656e-004
3,563863e+003;-1,699363e-003
3,565791e+003;-2,331964e-003
3,567720e+003;-2,711458e-003
3,569648e+003;-3,525954e-003
3,571577e+003;-3,464687e-003
3,573505e+003;-3,273534e-003
3,575434e+003;-3,378721e-003
3,577362e+003;-3,177696e-003
3,579291e+003;-2,350716e-003
3,581219e+003;-1,751276e-003
3,583148e+003;-2,669835e-003
3,585076e+003;-3,212692e-003
3,587005e+003;-3,057490e-003
3,588933e+003;-2,529659e-003
3,590862e+003;-2,125969e-003
3,592790e+003;-2,201700e-003
3,594719e+003;-2,306982e-003
3,596647e+003;-1,773815e-003
3,598576e+003;-1,476029e-003
3,600504e+003;-1,500960e-003
3,602433e+003;-1,488775e-003
3,604361e+003;-2,218908e-003
3,606290e+003;-2,342213e-003
3,608218e+003;-1,855975e-003
3,610147e+003;-1,230741e-003
3,612075e+003;-1,520210e-003
3,614004e+003;-2,726374e-003
3,615932e+003;-2,867936e-003
3,617861e+003;-1,777478e-003
3,619789e+003;-1,458560e-003
3,621718e+003;-6,608193e-004
3,623646e+003;-6,767984e-004
3,625575e+003;-1,715007e-003
3,627503e+003;-3,189274e-003
3,629432e+003;-2,545569e-003
3,631360e+003;-8,324234e-004
3,633289e+003;-4,282451e-004
3,635217e+003;-7,414698e-004
3,637146e+003;-6,698841e-004
3,639074e+003;-5,622850e-004
3,641003e+003;-1,206423e-003
3,642931e+003;-1,071227e-003
3,644860e+003;-2,271023e-003
3,646788e+003;-3,392431e-003
3,648717e+003;-3,292509e-003
3,650645e+003;-1,594197e-003
3,652574e+003;-9,459730e-004
3,654502e+003;-6,732255e-004
3,656431e+003;-6,399430e-004
3,658359e+003;-9,376744e-004
3,660288e+003;-1,502809e-003
3,662216e+003;-1,313896e-003
3,664145e+003;-1,172554e-003
3,666073e+003;-1,572276e-003
3,668002e+003;-1,600338e-003
3,669930e+003;-5,661235e-004
3,671859e+003;-9,342027e-004
3,673787e+003;-1,992939e-003
3,675716e+003;-2,599292e-003
3,677644e+003;-4,540965e-004
3,679573e+003;-9,180348e-004
3,681501e+003;-1,199980e-003
3,683430e+003;-1,382463e-004
3,685358e+003;5,150094e-004
3,687287e+003;-4,334420e-004
3,689215e+003;-6,602569e-004
3,691144e+003;-2,865811e-004
3,693072e+003;-6,595952e-004
3,695001e+003;-2,639649e-004
3,696929e+003;3,585257e-004
3,698858e+003;-9,286479e-005
3,700786e+003;-4,689578e-004
3,702715e+003;-9,283175e-004
3,704643e+003;-1,368762e-003
3,706572e+003;-1,038074e-003
3,708500e+003;-6,667743e-004
3,710429e+003;-8,778931e-004
3,712357e+003;-3,975921e-004
3,714286e+003;2,201321e-004
3,716214e+003;-4,225185e-004
3,718143e+003;-8,794473e-004
3,720071e+003;-2,168082e-004
3,722000e+003;-7,955812e-004
3,723928e+003;-7,887681e-004
3,725857e+003;-5,366385e-004
3,727785e+003;-8,787198e-004
3,729714e+003;-1,199286e-003
3,731642e+003;-1,426857e-003
3,733571e+003;-3,762728e-004
3,735499e+003;5,702742e-005
3,737427e+003;2,536157e-004
3,739356e+003;5,908835e-004
3,741285e+003;2,130378e-004
3,743213e+003;-6,083124e-004
3,745142e+003;-2,027041e-003
3,747070e+003;-1,364996e-003
3,748999e+003;1,909603e-004
3,750927e+003;2,489624e-003
3,752855e+003;1,212342e-003
3,754784e+003;6,262379e-006
3,756713e+003;-1,254274e-004
3,758641e+003;-6,308444e-004
3,760570e+003;-1,103055e-003
3,762498e+003;-9,694794e-004
3,764427e+003;-7,414765e-005
3,766355e+003;8,646314e-004
3,768283e+003;4,316859e-004
3,770212e+003;3,174407e-004
3,772141e+003;4,798471e-004
3,774069e+003;6,565168e-004
3,775998e+003;2,599812e-004
3,777926e+003;-1,180074e-004
3,779854e+003;4,665458e-004
3,781783e+003;4,512549e-004
3,783711e+003;-2,562493e-004
3,785640e+003;4,700287e-004
3,787569e+003;8,691134e-004
3,789497e+003;9,510510e-005
3,791426e+003;-3,797488e-004
3,793354e+003;-7,169587e-004
3,795282e+003;-7,215235e-004
3,797211e+003;-6,041764e-004
3,799139e+003;-1,264243e-003
3,801068e+003;-4,057024e-004
3,802997e+003;1,123702e-003
3,804925e+003;4,040255e-004
3,806854e+003;6,102606e-004
3,808782e+003;9,924705e-004
3,810710e+003;1,403785e-004
3,812639e+003;-2,205504e-004
3,814567e+003;-5,957389e-004
3,816496e+003;-6,171467e-004
3,818425e+003;-1,105203e-003
3,820353e+003;-1,358093e-003
3,822281e+003;4,502267e-004
3,824210e+003;8,910595e-004
3,826138e+003;1,143768e-003
3,828067e+003;-5,299206e-004
3,829995e+003;-1,315151e-003
3,831924e+003;-7,226152e-004
3,833853e+003;-2,799587e-004
3,835781e+003;-1,325623e-003
3,837709e+003;-2,429208e-003
3,839638e+003;-1,788664e-003
3,841566e+003;-1,215576e-003
3,843495e+003;-8,902931e-004
3,845423e+003;4,801788e-004
3,847352e+003;8,240960e-004
3,849281e+003;3,045423e-004
3,851209e+003;-3,556476e-004
3,853137e+003;4,386511e-004
3,855066e+003;1,371859e-003
3,856994e+003;8,688810e-004
3,858923e+003;-2,028986e-004
3,860851e+003;-1,030074e-003
3,862780e+003;-8,673446e-004
3,864708e+003;-5,806502e-004
3,866637e+003;-6,864830e-005
3,868565e+003;-5,466773e-005
3,870494e+003;2,383654e-004
3,872422e+003;6,370381e-004
3,874351e+003;9,386739e-004
3,876279e+003;3,675457e-004
3,878208e+003;1,791264e-004
3,880136e+003;6,622245e-004
3,882065e+003;6,157354e-004
3,883993e+003;-3,640567e-004
3,885922e+003;-4,686600e-004
3,887850e+003;8,128541e-005
3,889779e+003;-3,589583e-004
3,891707e+003;-1,026967e-003
3,893636e+003;-4,177518e-004
3,895564e+003;-1,490776e-004
3,897493e+003;-6,313738e-004
3,899421e+003;-5,223752e-004
3,901350e+003;-4,129520e-004
3,903278e+003;-3,928582e-004
3,905207e+003;-2,966471e-004
3,907135e+003;-1,172455e-004
3,909064e+003;1,403122e-004
3,910992e+003;2,068388e-004
3,912921e+003;1,693148e-004
3,914849e+003;1,079310e-004
3,916778e+003;1,731267e-004
3,918706e+003;-6,586548e-005
3,920635e+003;4,173249e-004
3,922563e+003;2,382328e-004
3,924492e+003;5,681564e-004
3,926420e+003;5,304685e-004
3,928349e+003;2,821617e-004
3,930277e+003;5,548524e-004
3,932206e+003;3,866807e-004
3,934134e+003;-1,969041e-004
3,936063e+003;-2,663491e-004
3,937991e+003;-2,755546e-004
3,939920e+003;-2,312471e-004
3,941848e+003;-3,573361e-004
3,943777e+003;-3,760079e-004
3,945705e+003;-5,335278e-004
3,947634e+003;2,035901e-004
3,949562e+003;1,059294e-003
3,951491e+003;4,997168e-004
3,953419e+003;-3,737359e-005
3,955348e+003;2,636613e-004
3,957276e+003;5,167676e-004
3,959205e+003;1,536697e-004
3,961133e+003;-1,891873e-004
3,963062e+003;-5,805509e-004
3,964990e+003;-9,094049e-004
3,966919e+003;-9,107937e-004
3,968847e+003;4,506253e-006
3,970776e+003;3,111398e-005
3,972704e+003;-3,994790e-004
3,974633e+003;-3,342601e-004
3,976561e+003;-8,449098e-006
3,978490e+003;9,248273e-004
3,980418e+003;1,049861e-003
3,982347e+003;2,032918e-004
3,984275e+003;-6,357080e-004
3,986204e+003;-5,719144e-004
3,988132e+003;2,184082e-004
3,990061e+003;2,896218e-004
3,991989e+003;-5,198420e-005
3,993918e+003;-9,293103e-005
3,995846e+003;2,503998e-004
3,997775e+003;1,303689e-004
3,999703e+003;-1,377495e-004
4,001632e+003;-4,107672e-004
4,003560e+003;-2,390294e-004
4,005489e+003;4,576565e-004
4,007417e+003;1,568849e-004
4,009346e+003;-7,189492e-005
4,011274e+003;-1,631545e-004
4,013203e+003;-5,712526e-004
4,015131e+003;-8,060764e-005
4,017060e+003;3,706630e-004
4,018988e+003;-2,067734e-004
4,020917e+003;-4,336406e-004
4,022845e+003;-7,176864e-004
4,024774e+003;-1,894854e-004
4,026702e+003;3,380325e-004
4,028631e+003;-3,845821e-004
4,030559e+003;-5,519604e-004
4,032488e+003;-7,896941e-004
4,034416e+003;-6,079484e-004
4,036345e+003;1,478361e-004
4,038273e+003;2,262319e-004
4,040202e+003;3,708951e-004
4,042130e+003;5,328902e-004
4,044059e+003;4,514539e-004
4,045987e+003;4,439579e-004
4,047916e+003;-4,707121e-004
4,049844e+003;-7,101442e-004
4,051773e+003;-5,299868e-004
4,053701e+003;-3,225726e-004
4,055630e+003;1,228823e-003
4,057558e+003;1,308777e-003
4,059487e+003;3,556075e-004
4,061415e+003;7,233763e-005
4,063344e+003;8,986882e-005
4,065272e+003;3,032823e-004
4,067201e+003;3,235750e-004
4,069129e+003;6,686956e-004
4,071058e+003;6,589725e-004
4,072986e+003;1,062184e-003
4,074915e+003;8,872745e-004
4,076843e+003;4,834959e-004
4,078771e+003;1,043484e-003
4,080700e+003;9,483700e-004
4,082629e+003;4,709906e-004
4,084557e+003;1,378263e-004
4,086486e+003;-2,117411e-004
4,088414e+003;-1,915056e-004
4,090343e+003;2,242428e-004
4,092271e+003;6,224049e-004
4,094199e+003;4,748715e-004
4,096128e+003;-1,269015e-005
4,098057e+003;-1,852129e-004
4,099985e+003;4,025973e-005
4,101914e+003;4,929829e-004
4,103842e+003;4,393144e-004
4,105771e+003;9,026651e-005
4,107699e+003;5,421460e-004
4,109627e+003;4,258154e-004
4,111556e+003;-1,785888e-005
4,113484e+003;4,921536e-004
4,115413e+003;6,958419e-004
4,117341e+003;5,273501e-004
4,119270e+003;-1,779596e-004
4,121199e+003;-6,921484e-004
4,123127e+003;3,936502e-005
4,125056e+003;1,709722e-004
4,126984e+003;-8,630457e-004
4,128913e+003;-7,125590e-004
4,130841e+003;-4,582196e-005
4,132770e+003;5,336864e-004
4,134698e+003;7,712165e-004
4,136626e+003;6,287094e-004
4,138555e+003;5,465252e-004
4,140483e+003;2,185740e-004
4,142412e+003;1,439913e-004
4,144340e+003;5,020388e-004
4,146269e+003;8,276481e-004
4,148197e+003;2,852452e-004
4,150126e+003;-6,441448e-004
4,152055e+003;-5,196283e-004
4,153983e+003;2,964852e-004
4,155912e+003;1,320907e-003
4,157840e+003;1,175462e-003
4,159769e+003;8,821177e-005
4,161697e+003;-3,542241e-004
4,163625e+003;1,430301e-004
4,165554e+003;1,157189e-003
4,167482e+003;1,409720e-003
4,169411e+003;5,949314e-004
4,171339e+003;-1,331784e-004
4,173268e+003;-5,622850e-004
4,175196e+003;-3,770011e-004
4,177125e+003;-1,213199e-004
4,179053e+003;6,063953e-005
4,180982e+003;-2,002160e-004
4,182911e+003;-3,060838e-004
4,184839e+003;7,088846e-004
4,186768e+003;1,111345e-003
4,188696e+003;4,261139e-004
4,190625e+003;1,317941e-004
4,192553e+003;2,657500e-004
4,194481e+003;3,450956e-004
4,196410e+003;5,368048e-004
4,198338e+003;4,396461e-004
4,200267e+003;1,359702e-004
4,202195e+003;6,064116e-004
4,204124e+003;1,015353e-003
4,206052e+003;1,182306e-003
4,207981e+003;9,766629e-004
4,209909e+003;4,635938e-004
4,211838e+003;3,927165e-004
4,213767e+003;3,514624e-004
4,215695e+003;-4,358914e-004
4,217624e+003;-8,785544e-004
4,219552e+003;-3,710996e-006
4,221480e+003;4,527143e-004
4,223409e+003;1,568517e-004
4,225337e+003;-1,691163e-004
4,227266e+003;-4,904050e-004
4,229194e+003;-1,885580e-004
4,231123e+003;3,346502e-004
4,233051e+003;1,905249e-005
4,234980e+003;-4,489991e-004
4,236908e+003;-4,737571e-004
4,238837e+003;-4,952702e-004
4,240765e+003;-1,767010e-004
4,242694e+003;7,743034e-004
4,244623e+003;1,143502e-003
4,246551e+003;2,992703e-004
4,248479e+003;3,565692e-004
4,250408e+003;1,162737e-003
4,252336e+003;1,330204e-004
4,254265e+003;-1,093305e-003
4,256193e+003;-1,031009e-004
4,258122e+003;9,219053e-004
4,260050e+003;9,954262e-004
4,261979e+003;7,677312e-004
4,263907e+003;8,829250e-004
4,265836e+003;3,432386e-004
4,267764e+003;-5,658925e-005
4,269693e+003;4,108815e-005
4,271621e+003;-6,082131e-004
4,273550e+003;-2,339200e-005
4,275479e+003;5,749910e-004
4,277407e+003;2,144633e-004
4,279335e+003;4,083370e-004
4,281264e+003;-5,446895e-005
4,283192e+003;-5,118908e-005
4,285121e+003;5,813944e-004
4,287049e+003;4,592486e-004
4,288978e+003;-3,433648e-004
4,290906e+003;-1,991562e-004
4,292835e+003;3,140586e-004
4,294763e+003;5,447338e-004
4,296692e+003;-5,837825e-005
4,298620e+003;-2,563487e-004
4,300549e+003;-8,985022e-005
4,302477e+003;5,083085e-004
4,304406e+003;4,380541e-005
4,306334e+003;1,905249e-005
4,308263e+003;5,957609e-004
4,310191e+003;7,196377e-004
4,312120e+003;1,103504e-004
4,314048e+003;-9,628342e-004
4,315977e+003;-1,113895e-003
4,317905e+003;8,416127e-006
4,319834e+003;5,772333e-005
4,321762e+003;1,680884e-004
4,323691e+003;3,707293e-004
4,325619e+003;8,102199e-004
4,327548e+003;1,243367e-004
4,329476e+003;-6,469901e-004
4,331405e+003;-6,379909e-004
4,333333e+003;-7,631350e-004
4,335262e+003;-7,566190e-004
4,337190e+003;-4,423129e-004
4,339119e+003;-4,131618e-005
4,341047e+003;4,790510e-004
4,342976e+003;2,852452e-004
4,344904e+003;-1,504356e-004
4,346833e+003;1,002068e-003
4,348761e+003;5,332552e-004
4,350690e+003;-1,767010e-004
4,352618e+003;-3,845821e-004
4,354547e+003;-3,872967e-004
4,356475e+003;-4,268217e-004
4,358404e+003;-6,562207e-004
4,360332e+003;-6,055330e-004
4,362261e+003;1,829038e-005
4,364189e+003;2,846816e-004
4,366118e+003;6,242962e-004
4,368046e+003;1,636799e-004
4,369975e+003;-9,700564e-005
4,371903e+003;-2,337971e-004
4,373832e+003;-3,822317e-004
4,375760e+003;7,094577e-005
4,377688e+003;3,265261e-004
4,379617e+003;-2,313134e-004
4,381546e+003;-5,866063e-004
4,383474e+003;3,339538e-004
4,385403e+003;1,060855e-003
4,387331e+003;8,774468e-004
4,389260e+003;5,549520e-004
4,391188e+003;1,787949e-004
4,393117e+003;-1,043660e-003
4,395045e+003;-1,576965e-003
4,396974e+003;-1,268307e-003
4,398902e+003;-1,445066e-004
4,400831e+003;7,810084e-004
4,402759e+003;5,175845e-005
4,404688e+003;2,039548e-004
4,406616e+003;6,917930e-004
4,408544e+003;-8,862451e-005
4,410473e+003;-8,503142e-004
4,412402e+003;-9,748681e-004
4,414330e+003;-1,025744e-003
4,416259e+003;-5,338587e-004
4,418187e+003;1,243036e-004
4,420116e+003;-2,068397e-004
4,422044e+003;5,975526e-004
4,423973e+003;1,146791e-003
4,425901e+003;8,413256e-004
4,427830e+003;5,023705e-004
4,429758e+003;1,334844e-004
4,431687e+003;1,631164e-004
4,433615e+003;8,201788e-004
4,435543e+003;7,156219e-004
4,437472e+003;-2,567791e-004
4,439400e+003;-1,597895e-003
4,441329e+003;-3,001569e-004
4,443258e+003;9,532846e-004
4,445186e+003;-3,533964e-004
4,447115e+003;-7,858244e-004
4,449043e+003;-7,047852e-004
4,450972e+003;-4,275168e-004
4,452900e+003;6,836090e-005
4,454829e+003;1,824744e-004
4,456757e+003;-5,933901e-005
4,458686e+003;-1,424530e-004
4,460614e+003;-8,749819e-005
4,462542e+003;-6,410679e-004
4,464471e+003;-7,578097e-004
4,466399e+003;-6,466592e-004
4,468328e+003;1,779331e-004
4,470256e+003;6,245284e-004
4,472185e+003;-1,776946e-004
4,474113e+003;-6,467254e-004
4,476042e+003;-1,388294e-005
4,477971e+003;-8,024323e-005
4,479899e+003;1,174761e-004
4,481828e+003;6,862177e-004
4,483756e+003;1,023855e-003
4,485685e+003;6,082697e-004
4,487613e+003;3,084217e-004
4,489542e+003;8,136059e-004
4,491470e+003;5,984152e-004
4,493398e+003;-9,104280e-005
4,495327e+003;-1,003183e-004
4,497255e+003;3,939435e-004
4,499184e+003;1,060556e-003
