5,245513e+002;2,829111e-001
5,264797e+002;1,371704e-001
5,284083e+002;8,626895e-002
5,303367e+002;7,110433e-002
5,322653e+002;3,452235e-002
5,341937e+002;-9,200912e-003
5,361223e+002;1,478669e-003
5,380507e+002;4,964887e-002
5,399792e+002;7,144725e-002
5,419077e+002;5,141627e-002
5,438362e+002;4,608564e-002
5,457647e+002;8,237745e-002
5,476932e+002;9,990273e-002
5,496217e+002;5,919443e-002
5,515502e+002;1,083657e-002
5,534787e+002;-2,674676e-003
5,554072e+002;1,175807e-002
5,573357e+002;2,215019e-002
5,592642e+002;1,702086e-002
5,611927e+002;1,743870e-002
5,631212e+002;2,055624e-002
5,650497e+002;2,022832e-002
5,669782e+002;1,568071e-002
5,689067e+002;1,467439e-002
5,708352e+002;1,103124e-002
5,727637e+002;1,051006e-002
5,746922e+002;1,108542e-002
5,766207e+002;1,823677e-002
5,785492e+002;2,307765e-002
5,804777e+002;3,310569e-002
5,824062e+002;2,320486e-002
5,843347e+002;1,808013e-002
5,862632e+002;2,118963e-002
5,881917e+002;1,924522e-002
5,901202e+002;1,664316e-002
5,920486e+002;2,579096e-002
5,939772e+002;2,657834e-002
5,959056e+002;2,336801e-002
5,978342e+002;2,095542e-002
5,997626e+002;2,067306e-002
6,016912e+002;1,843669e-002
6,036196e+002;1,985225e-002
6,055482e+002;1,550874e-002
6,074766e+002;1,561486e-002
6,094052e+002;1,720287e-002
6,113336e+002;1,557457e-002
6,132621e+002;1,715927e-002
6,151906e+002;2,813759e-003
6,171191e+002;3,105498e-003
6,190476e+002;1,756427e-002
6,209761e+002;1,930927e-002
6,229046e+002;1,876928e-002
6,248331e+002;2,211975e-002
6,267616e+002;2,511843e-002
6,286901e+002;2,536825e-002
6,306186e+002;2,709886e-002
6,325471e+002;2,621004e-002
6,344756e+002;2,335536e-002
6,364041e+002;2,049146e-002
6,383326e+002;2,343106e-002
6,402611e+002;2,448896e-002
6,421896e+002;2,234539e-002
6,441181e+002;2,072494e-002
6,460466e+002;2,206564e-002
6,479751e+002;2,323450e-002
6,499036e+002;2,048993e-002
6,518321e+002;1,981084e-002
6,537606e+002;2,195665e-002
6,556891e+002;2,291548e-002
6,576176e+002;2,331099e-002
6,595461e+002;2,356051e-002
6,614745e+002;2,435499e-002
6,634031e+002;2,558370e-002
6,653315e+002;2,566939e-002
6,672601e+002;2,436708e-002
6,691885e+002;2,547062e-002
6,711171e+002;2,602967e-002
6,730455e+002;2,606865e-002
6,749741e+002;2,646018e-002
6,769025e+002;2,747310e-002
6,788311e+002;2,726641e-002
6,807595e+002;2,796373e-002
6,826880e+002;2,833614e-002
6,846165e+002;2,741715e-002
6,865450e+002;2,703266e-002
6,884735e+002;2,765421e-002
6,904020e+002;2,725011e-002
6,923305e+002;2,801618e-002
6,942590e+002;2,856093e-002
6,961875e+002;2,859306e-002
6,981160e+002;2,869032e-002
7,000445e+002;2,961612e-002
7,019730e+002;3,037369e-002
7,039015e+002;3,072132e-002
7,058300e+002;3,103983e-002
7,077585e+002;3,179251e-002
7,096870e+002;3,129668e-002
7,116155e+002;2,776797e-002
7,135440e+002;2,380188e-002
7,154725e+002;2,248788e-002
7,174010e+002;2,154938e-002
7,193295e+002;2,034532e-002
7,212580e+002;1,955532e-002
7,231865e+002;2,122557e-002
7,251150e+002;2,339749e-002
7,270435e+002;2,525034e-002
7,289720e+002;2,675440e-002
7,309005e+002;2,743385e-002
7,328290e+002;2,774752e-002
7,347574e+002;2,803625e-002
7,366860e+002;2,804558e-002
7,386144e+002;2,824999e-002
7,405430e+002;2,785219e-002
7,424714e+002;2,641658e-002
7,444000e+002;2,455434e-002
7,463284e+002;2,297273e-002
7,482570e+002;2,304855e-002
7,501854e+002;2,427121e-002
7,521140e+002;2,457296e-002
7,540424e+002;2,358766e-002
7,559709e+002;2,270484e-002
7,578994e+002;2,210368e-002
7,598279e+002;2,119308e-002
7,617564e+002;2,063025e-002
7,636849e+002;2,219001e-002
7,656134e+002;2,490752e-002
7,675419e+002;2,633123e-002
7,694704e+002;2,663756e-002
7,713989e+002;2,457082e-002
7,733274e+002;2,045954e-002
7,752559e+002;1,712125e-002
7,771844e+002;1,457820e-002
7,791129e+002;1,181554e-002
7,810414e+002;1,087564e-002
7,829699e+002;1,104405e-002
7,848984e+002;1,124432e-002
7,868269e+002;1,228661e-002
7,887554e+002;1,345504e-002
7,906839e+002;1,421620e-002
7,926124e+002;1,460763e-002
7,945409e+002;1,481596e-002
7,964694e+002;1,594169e-002
7,983979e+002;1,657300e-002
8,003264e+002;1,614372e-002
8,022549e+002;1,671674e-002
8,041833e+002;1,735565e-002
8,061119e+002;1,751431e-002
8,080403e+002;1,774368e-002
8,099689e+002;1,857281e-002
8,118973e+002;1,933175e-002
8,138259e+002;1,883440e-002
8,157543e+002;1,889918e-002
8,176829e+002;1,857530e-002
8,196113e+002;1,799323e-002
8,215399e+002;1,776377e-002
8,234683e+002;1,820288e-002
8,253969e+002;1,904030e-002
8,273253e+002;2,015615e-002
8,292538e+002;2,070607e-002
8,311823e+002;2,020801e-002
8,331108e+002;1,855234e-002
8,350393e+002;1,749323e-002
8,369678e+002;1,876344e-002
8,388963e+002;2,075594e-002
8,408248e+002;2,275630e-002
8,427533e+002;2,437350e-002
8,446818e+002;2,435149e-002
8,466103e+002;2,300980e-002
8,485388e+002;2,165939e-002
8,504673e+002;2,006363e-002
8,523958e+002;1,920190e-002
8,543243e+002;1,857361e-002
8,562528e+002;1,733496e-002
8,581813e+002;1,667717e-002
8,601098e+002;1,615609e-002
8,620383e+002;1,671388e-002
8,639668e+002;1,632123e-002
8,658953e+002;1,593908e-002
8,678238e+002;1,599614e-002
8,697523e+002;2,414183e-002
8,716808e+002;2,920579e-002
8,736093e+002;2,127004e-002
8,755378e+002;1,799793e-002
8,774662e+002;1,753674e-002
8,793948e+002;1,747871e-002
8,813232e+002;1,736027e-002
8,832518e+002;1,874351e-002
8,851802e+002;1,918434e-002
8,871088e+002;1,883668e-002
8,890372e+002;1,877181e-002
8,909658e+002;1,964985e-002
8,928942e+002;1,999042e-002
8,948228e+002;2,067743e-002
8,967512e+002;2,057424e-002
8,986797e+002;2,013047e-002
9,006082e+002;1,979579e-002
9,025367e+002;2,015004e-002
9,044652e+002;2,029327e-002
9,063937e+002;2,008129e-002
9,083222e+002;2,045061e-002
9,102507e+002;2,063261e-002
9,121792e+002;2,017493e-002
9,141077e+002;2,103143e-002
9,160362e+002;2,191514e-002
9,179647e+002;2,209008e-002
9,198932e+002;2,183792e-002
9,218217e+002;2,197850e-002
9,237502e+002;2,175584e-002
9,256787e+002;2,161370e-002
9,276072e+002;2,187426e-002
9,295357e+002;2,230552e-002
9,314642e+002;2,291234e-002
9,333927e+002;2,321863e-002
9,353212e+002;2,305459e-002
9,372497e+002;2,299775e-002
9,391782e+002;2,292247e-002
9,411067e+002;2,329288e-002
9,430352e+002;2,284165e-002
9,449637e+002;2,247371e-002
9,468922e+002;2,297060e-002
9,488207e+002;2,386873e-002
9,507491e+002;2,443960e-002
9,526777e+002;2,527608e-002
9,546061e+002;2,522906e-002
9,565347e+002;2,532174e-002
9,584631e+002;2,598974e-002
9,603917e+002;2,645218e-002
9,623201e+002;2,644077e-002
9,642487e+002;2,681480e-002
9,661771e+002;2,872030e-002
9,681057e+002;3,051855e-002
9,700341e+002;3,146953e-002
9,719626e+002;3,230686e-002
9,738911e+002;3,080045e-002
9,758196e+002;2,773353e-002
9,777481e+002;2,520388e-002
9,796766e+002;2,361589e-002
9,816051e+002;2,260622e-002
9,835336e+002;2,184116e-002
9,854621e+002;2,141138e-002
9,873906e+002;2,159259e-002
9,893191e+002;2,170171e-002
9,912476e+002;2,130383e-002
9,931761e+002;2,074746e-002
9,951046e+002;2,069057e-002
9,970331e+002;2,047492e-002
9,989616e+002;2,003091e-002
1,000890e+003;1,936075e-002
1,002819e+003;1,828301e-002
1,004747e+003;1,706904e-002
1,006676e+003;1,601364e-002
1,008604e+003;1,523100e-002
1,010533e+003;1,493968e-002
1,012461e+003;1,512823e-002
1,014390e+003;1,561136e-002
1,016318e+003;1,628845e-002
1,018247e+003;1,702893e-002
1,020175e+003;1,775566e-002
1,022104e+003;1,815012e-002
1,024032e+003;1,827382e-002
1,025961e+003;1,806220e-002
1,027889e+003;1,684037e-002
1,029818e+003;1,492860e-002
1,031746e+003;1,511975e-002
1,033675e+003;1,835905e-002
1,035603e+003;2,188256e-002
1,037531e+003;2,430169e-002
1,039460e+003;2,588229e-002
1,041389e+003;2,762505e-002
1,043317e+003;2,994898e-002
1,045245e+003;3,155286e-002
1,047174e+003;3,237275e-002
1,049103e+003;3,315042e-002
1,051031e+003;3,321633e-002
1,052959e+003;3,262978e-002
1,054888e+003;3,201249e-002
1,056817e+003;3,224037e-002
1,058745e+003;3,269934e-002
1,060673e+003;3,331717e-002
1,062602e+003;3,382062e-002
1,064531e+003;3,418271e-002
1,066459e+003;3,331800e-002
1,068387e+003;3,181928e-002
1,070316e+003;3,073842e-002
1,072245e+003;2,900610e-002
1,074173e+003;2,787098e-002
1,076101e+003;2,794673e-002
1,078030e+003;2,781276e-002
1,079958e+003;2,770761e-002
1,081887e+003;2,684659e-002
1,083815e+003;2,523454e-002
1,085744e+003;2,403340e-002
1,087672e+003;2,329543e-002
1,089601e+003;2,286518e-002
1,091529e+003;2,328176e-002
1,093458e+003;2,422167e-002
1,095386e+003;2,559161e-002
1,097315e+003;2,662040e-002
1,099243e+003;2,704737e-002
1,101172e+003;2,744754e-002
1,103100e+003;2,853952e-002
1,105029e+003;2,978454e-002
1,106957e+003;3,058225e-002
1,108886e+003;3,127371e-002
1,110814e+003;3,225782e-002
1,112743e+003;3,337274e-002
1,114671e+003;3,313233e-002
1,116600e+003;3,254303e-002
1,118528e+003;3,340559e-002
1,120457e+003;3,386207e-002
1,122385e+003;3,377019e-002
1,124314e+003;3,304597e-002
1,126242e+003;3,234462e-002
1,128171e+003;3,285723e-002
1,130099e+003;3,321319e-002
1,132028e+003;3,179600e-002
1,133956e+003;3,063203e-002
1,135885e+003;3,051027e-002
1,137813e+003;3,011032e-002
1,139742e+003;2,976722e-002
1,141670e+003;3,045365e-002
1,143599e+003;3,090618e-002
1,145527e+003;3,104399e-002
1,147456e+003;3,151691e-002
1,149384e+003;3,134603e-002
1,151313e+003;2,999186e-002
1,153241e+003;2,967160e-002
1,155170e+003;2,812692e-002
1,157098e+003;2,601612e-002
1,159027e+003;2,409451e-002
1,160955e+003;2,245696e-002
1,162884e+003;2,172201e-002
1,164812e+003;2,105453e-002
1,166741e+003;1,914704e-002
1,168669e+003;1,796885e-002
1,170598e+003;1,812338e-002
1,172526e+003;1,796833e-002
1,174455e+003;1,786263e-002
1,176383e+003;1,834843e-002
1,178312e+003;1,867903e-002
1,180240e+003;1,852727e-002
1,182169e+003;1,778068e-002
1,184097e+003;1,721990e-002
1,186026e+003;1,723359e-002
1,187954e+003;1,765415e-002
1,189883e+003;1,865883e-002
1,191811e+003;1,938590e-002
1,193740e+003;1,989686e-002
1,195668e+003;2,035660e-002
1,197597e+003;2,030094e-002
1,199525e+003;2,005572e-002
1,201454e+003;1,926815e-002
1,203382e+003;1,782052e-002
1,205311e+003;1,652921e-002
1,207239e+003;1,527283e-002
1,209168e+003;1,350121e-002
1,211096e+003;1,190417e-002
1,213025e+003;1,042422e-002
1,214953e+003;9,054065e-003
1,216882e+003;8,460515e-003
1,218810e+003;8,471056e-003
1,220739e+003;8,509439e-003
1,222667e+003;8,255551e-003
1,224596e+003;7,876885e-003
1,226524e+003;8,098381e-003
1,228453e+003;9,339397e-003
1,230381e+003;1,059219e-002
1,232310e+003;1,125778e-002
1,234238e+003;1,168519e-002
1,236167e+003;1,231534e-002
1,238095e+003;1,312792e-002
1,240024e+003;1,421182e-002
1,241952e+003;1,567205e-002
1,243881e+003;1,706397e-002
1,245809e+003;1,765885e-002
1,247738e+003;1,829715e-002
1,249666e+003;1,872894e-002
1,251595e+003;1,864942e-002
1,253523e+003;1,803153e-002
1,255452e+003;1,682091e-002
1,257380e+003;1,579852e-002
1,259309e+003;1,510308e-002
1,261237e+003;1,421069e-002
1,263166e+003;1,365153e-002
1,265094e+003;1,295017e-002
1,267023e+003;1,268794e-002
1,268951e+003;1,280890e-002
1,270880e+003;1,277102e-002
1,272808e+003;1,326782e-002
1,274737e+003;1,376622e-002
1,276665e+003;1,364254e-002
1,278594e+003;1,358339e-002
1,280522e+003;1,332269e-002
1,282451e+003;1,249447e-002
1,284379e+003;1,186515e-002
1,286308e+003;1,104558e-002
1,288236e+003;1,041951e-002
1,290165e+003;1,038306e-002
1,292093e+003;9,924285e-003
1,294022e+003;9,759529e-003
1,295950e+003;1,004444e-002
1,297879e+003;1,022891e-002
1,299807e+003;9,968730e-003
1,301736e+003;9,603100e-003
1,303664e+003;9,153983e-003
1,305593e+003;8,720946e-003
1,307521e+003;8,178123e-003
1,309450e+003;7,343675e-003
1,311378e+003;6,525726e-003
1,313307e+003;5,686721e-003
1,315235e+003;5,201492e-003
1,317164e+003;5,026249e-003
1,319092e+003;4,695100e-003
1,321021e+003;4,423647e-003
1,322949e+003;4,264243e-003
1,324878e+003;4,342449e-003
1,326806e+003;4,232791e-003
1,328735e+003;4,140757e-003
1,330663e+003;4,276624e-003
1,332592e+003;4,252398e-003
1,334520e+003;4,236505e-003
1,336449e+003;4,234197e-003
1,338377e+003;3,885196e-003
1,340306e+003;4,048942e-003
1,342234e+003;4,604641e-003
1,344163e+003;4,566300e-003
1,346091e+003;4,675138e-003
1,348020e+003;4,688200e-003
1,349948e+003;4,834056e-003
1,351877e+003;5,240896e-003
1,353805e+003;5,538062e-003
1,355734e+003;5,671850e-003
1,357662e+003;6,023567e-003
1,359591e+003;6,388514e-003
1,361519e+003;6,377351e-003
1,363448e+003;6,451196e-003
1,365376e+003;7,206507e-003
1,367305e+003;7,621814e-003
1,369233e+003;7,789101e-003
1,371161e+003;7,639822e-003
1,373090e+003;7,527643e-003
1,375019e+003;7,888289e-003
1,376947e+003;9,081977e-003
1,378875e+003;9,969577e-003
1,380804e+003;1,046275e-002
1,382733e+003;1,055650e-002
1,384661e+003;1,032557e-002
1,386589e+003;1,013122e-002
1,388518e+003;1,069144e-002
1,390447e+003;1,107287e-002
1,392375e+003;1,053091e-002
1,394303e+003;9,201023e-003
1,396232e+003;7,938297e-003
1,398161e+003;7,064533e-003
1,400089e+003;6,528484e-003
1,402017e+003;6,199347e-003
1,403946e+003;5,785229e-003
1,405875e+003;5,642813e-003
1,407803e+003;5,616463e-003
1,409731e+003;5,467325e-003
1,411660e+003;5,463198e-003
1,413589e+003;5,838958e-003
1,415517e+003;6,307889e-003
1,417445e+003;7,029443e-003
1,419374e+003;9,332592e-003
1,421302e+003;1,153021e-002
1,423231e+003;1,283377e-002
1,425159e+003;1,489266e-002
1,427088e+003;1,653782e-002
1,429016e+003;1,709440e-002
1,430945e+003;1,696057e-002
1,432873e+003;1,685353e-002
1,434802e+003;1,639730e-002
1,436730e+003;1,719026e-002
1,438659e+003;1,843748e-002
1,440587e+003;1,862320e-002
1,442516e+003;1,810213e-002
1,444444e+003;1,699268e-002
1,446373e+003;1,564763e-002
1,448301e+003;1,440567e-002
1,450230e+003;1,407096e-002
1,452158e+003;1,365143e-002
1,454087e+003;1,310613e-002
1,456015e+003;1,186382e-002
1,457944e+003;1,118764e-002
1,459872e+003;1,162382e-002
1,461801e+003;1,157352e-002
1,463729e+003;1,132774e-002
1,465658e+003;1,127642e-002
1,467586e+003;1,120709e-002
1,469515e+003;1,122514e-002
1,471443e+003;1,082577e-002
1,473372e+003;1,000765e-002
1,475300e+003;9,822258e-003
1,477229e+003;9,769966e-003
1,479157e+003;9,371526e-003
1,481086e+003;8,485821e-003
1,483014e+003;7,683595e-003
1,484943e+003;7,110169e-003
1,486871e+003;6,269094e-003
1,488800e+003;5,267289e-003
1,490728e+003;6,030454e-003
1,492657e+003;6,524952e-003
1,494585e+003;5,965314e-003
1,496514e+003;4,497495e-003
1,498442e+003;3,692838e-003
1,500371e+003;3,580472e-003
1,502299e+003;3,002725e-003
1,504228e+003;2,154842e-003
1,506156e+003;3,774281e-004
1,508085e+003;-9,110905e-005
1,510013e+003;9,556091e-004
1,511942e+003;1,441002e-003
1,513870e+003;1,244640e-003
1,515799e+003;5,774130e-004
1,517727e+003;6,786382e-005
1,519656e+003;1,349759e-004
1,521584e+003;2,832227e-004
1,523513e+003;5,728012e-004
1,525441e+003;7,689925e-004
1,527370e+003;1,105332e-003
1,529298e+003;1,330978e-003
1,531227e+003;1,030929e-003
1,533155e+003;7,991990e-004
1,535084e+003;9,837032e-004
1,537012e+003;9,005886e-004
1,538941e+003;5,767494e-004
1,540869e+003;-7,495406e-004
1,542798e+003;5,682559e-004
1,544726e+003;1,416202e-003
1,546655e+003;1,467631e-003
1,548583e+003;1,218755e-003
1,550512e+003;1,359329e-003
1,552440e+003;1,333836e-003
1,554369e+003;1,200779e-003
1,556297e+003;9,914410e-004
1,558226e+003;2,224858e-004
1,560154e+003;9,982490e-004
1,562083e+003;1,329781e-003
1,564011e+003;1,138386e-003
1,565940e+003;1,047237e-003
1,567868e+003;9,619849e-004
1,569797e+003;1,251983e-003
1,571725e+003;1,719777e-003
1,573654e+003;1,544902e-003
1,575582e+003;1,231415e-003
1,577511e+003;1,466634e-003
1,579439e+003;1,547828e-003
1,581368e+003;1,691635e-003
1,583296e+003;2,046900e-003
1,585225e+003;2,230503e-003
1,587153e+003;2,191705e-003
1,589082e+003;2,271037e-003
1,591010e+003;2,057686e-003
1,592939e+003;2,023664e-003
1,594867e+003;2,103032e-003
1,596796e+003;2,261311e-003
1,598724e+003;2,559345e-003
1,600653e+003;2,560411e-003
1,602581e+003;2,254250e-003
1,604510e+003;2,517451e-003
1,606438e+003;3,009798e-003
1,608367e+003;3,132563e-003
1,610295e+003;2,893772e-003
1,612224e+003;2,936536e-003
1,614152e+003;2,828133e-003
1,616081e+003;2,272436e-003
1,618009e+003;2,886734e-003
1,619938e+003;3,681042e-003
1,621866e+003;3,839229e-003
1,623795e+003;3,852768e-003
1,625723e+003;3,761783e-003
1,627652e+003;3,971224e-003
1,629580e+003;4,396501e-003
1,631509e+003;4,530574e-003
1,633437e+003;4,341980e-003
1,635366e+003;3,720509e-003
1,637294e+003;3,718370e-003
1,639223e+003;4,296166e-003
1,641151e+003;4,547884e-003
1,643080e+003;4,775359e-003
1,645008e+003;4,601393e-003
1,646937e+003;4,428267e-003
1,648865e+003;5,208065e-003
1,650794e+003;5,143819e-003
1,652722e+003;4,100349e-003
1,654651e+003;5,546116e-003
1,656579e+003;6,218203e-003
1,658508e+003;6,930249e-003
1,660436e+003;7,233964e-003
1,662365e+003;7,744271e-003
1,664293e+003;8,772808e-003
1,666222e+003;9,310825e-003
1,668150e+003;9,583860e-003
1,670079e+003;1,043770e-002
1,672007e+003;1,120073e-002
1,673936e+003;1,220154e-002
1,675864e+003;1,382820e-002
1,677793e+003;1,509451e-002
1,679721e+003;1,533289e-002
1,681650e+003;1,587642e-002
1,683578e+003;1,581381e-002
1,685507e+003;2,002661e-002
1,687435e+003;2,171383e-002
1,689364e+003;2,370830e-002
1,691292e+003;2,619294e-002
1,693221e+003;2,882906e-002
1,695149e+003;3,156091e-002
1,697078e+003;3,700610e-002
1,699006e+003;3,942173e-002
1,700935e+003;4,638650e-002
1,702863e+003;4,888035e-002
1,704792e+003;5,037793e-002
1,706720e+003;5,093040e-002
1,708649e+003;5,124891e-002
1,710577e+003;4,935751e-002
1,712505e+003;4,716561e-002
1,714434e+003;4,128344e-002
1,716363e+003;3,277361e-002
1,718291e+003;2,574877e-002
1,720219e+003;2,452970e-002
1,722148e+003;2,049066e-002
1,724077e+003;1,683342e-002
1,726005e+003;1,574839e-002
1,727933e+003;1,436317e-002
1,729862e+003;1,309025e-002
1,731791e+003;1,206372e-002
1,733719e+003;8,629545e-003
1,735647e+003;7,184980e-003
1,737576e+003;7,604246e-003
1,739505e+003;7,088984e-003
1,741433e+003;7,420077e-003
1,743361e+003;6,879549e-003
1,745290e+003;6,153203e-003
1,747219e+003;5,086489e-003
1,749147e+003;3,767732e-003
1,751075e+003;2,834070e-003
1,753004e+003;2,284260e-003
1,754932e+003;1,696758e-003
1,756861e+003;1,190247e-003
1,758789e+003;1,395925e-003
1,760718e+003;1,601734e-003
1,762646e+003;1,630102e-003
1,764575e+003;1,925872e-003
1,766503e+003;2,123975e-003
1,768432e+003;2,211420e-003
1,770360e+003;2,214484e-003
1,772289e+003;3,991388e-003
1,774217e+003;6,078770e-003
1,776146e+003;7,490762e-003
1,778074e+003;8,630795e-003
1,780003e+003;8,746438e-003
1,781931e+003;7,587050e-003
1,783860e+003;5,669634e-003
1,785788e+003;4,182841e-003
1,787717e+003;3,901544e-003
1,789645e+003;3,811986e-003
1,791574e+003;3,937820e-003
1,793502e+003;5,137449e-003
1,795431e+003;6,018158e-003
1,797359e+003;7,299430e-003
1,799288e+003;8,629781e-003
1,801216e+003;9,540199e-003
1,803145e+003;9,829240e-003
1,805073e+003;9,190227e-003
1,807002e+003;7,800436e-003
1,808930e+003;5,921680e-003
1,810859e+003;3,885329e-003
1,812787e+003;2,994017e-003
1,814716e+003;2,071969e-003
1,816644e+003;1,058264e-003
1,818573e+003;1,119683e-003
1,820501e+003;1,091580e-003
1,822430e+003;6,683969e-004
1,824358e+003;9,629819e-005
1,826287e+003;-3,695854e-004
1,828215e+003;-7,158670e-004
1,830144e+003;-7,983594e-004
1,832072e+003;-7,024360e-006
1,834001e+003;1,097869e-004
1,835929e+003;1,302187e-005
1,837858e+003;-1,441092e-004
1,839786e+003;-3,135336e-004
1,841715e+003;-3,682612e-004
1,843643e+003;-2,140594e-004
1,845572e+003;1,677238e-004
1,847500e+003;1,318935e-004
1,849429e+003;3,796169e-004
1,851357e+003;3,614771e-004
1,853286e+003;-2,811838e-004
1,855214e+003;-4,818329e-004
1,857143e+003;-9,697251e-005
1,859071e+003;2,818965e-004
1,861000e+003;6,848570e-004
1,862928e+003;7,566118e-004
1,864857e+003;7,680299e-004
1,866785e+003;5,402219e-004
1,868714e+003;-1,462953e-004
1,870642e+003;-2,485005e-004
1,872571e+003;4,204913e-005
1,874499e+003;1,961315e-004
1,876428e+003;4,120515e-004
1,878356e+003;3,828006e-004
1,880285e+003;1,994133e-004
1,882213e+003;3,197552e-005
1,884142e+003;3,237316e-005
1,886070e+003;3,549443e-004
1,887999e+003;3,555744e-004
1,889927e+003;4,453443e-005
1,891856e+003;-2,180165e-005
1,893784e+003;1,720660e-004
1,895713e+003;2,936005e-004
1,897641e+003;1,817451e-004
1,899570e+003;-2,001497e-004
1,901498e+003;-5,029485e-004
1,903427e+003;-7,168594e-004
1,905355e+003;-5,407421e-004
1,907284e+003;-5,347505e-005
1,909212e+003;-5,699951e-004
1,911141e+003;-3,370743e-004
1,913069e+003;-2,832868e-005
1,914998e+003;2,056785e-004
1,916926e+003;2,697195e-005
1,918855e+003;5,314637e-004
1,920783e+003;3,833311e-004
1,922712e+003;-2,620443e-004
1,924640e+003;-5,723776e-004
1,926569e+003;-5,067213e-004
1,928497e+003;-1,127074e-004
1,930426e+003;-1,434680e-005
1,932354e+003;-5,525229e-004
1,934283e+003;-4,225185e-004
1,936211e+003;-2,314127e-004
1,938140e+003;-3,109510e-004
1,940068e+003;-3,857739e-004
1,941997e+003;-5,629137e-004
1,943925e+003;-3,398554e-004
1,945854e+003;6,461186e-006
1,947782e+003;-6,159224e-004
1,949711e+003;-8,235273e-004
1,951639e+003;-9,991003e-004
1,953568e+003;-8,001784e-004
1,955496e+003;-9,906043e-004
1,957425e+003;-1,486530e-003
1,959353e+003;-1,294372e-003
1,961282e+003;-1,508331e-004
1,963210e+003;-3,502512e-004
1,965139e+003;-8,280250e-004
1,967067e+003;-5,694326e-004
1,968996e+003;3,949757e-005
1,970924e+003;1,359329e-003
1,972853e+003;2,267291e-004
1,974781e+003;-8,945256e-004
1,976710e+003;-9,172081e-004
1,978638e+003;5,792378e-004
1,980567e+003;2,520984e-003
1,982495e+003;1,964713e-003
1,984424e+003;1,111511e-003
1,986352e+003;1,936822e-003
1,988281e+003;1,819485e-003
1,990209e+003;6,450684e-004
1,992138e+003;2,997677e-004
1,994066e+003;1,061519e-003
1,995995e+003;1,022493e-003
1,997923e+003;4,011734e-004
1,999852e+003;3,525567e-004
2,001780e+003;4,241364e-005
2,003709e+003;-6,951918e-004
2,005637e+003;-5,817752e-004
2,007566e+003;-4,363217e-004
2,009494e+003;-8,367226e-004
2,011423e+003;-1,697788e-004
2,013351e+003;-4,761401e-004
2,015280e+003;-6,927769e-004
2,017208e+003;-5,584795e-004
2,019137e+003;-7,785801e-005
2,021065e+003;-1,171462e-004
2,022994e+003;-4,246701e-004
2,024922e+003;-9,943399e-004
2,026851e+003;-1,529950e-003
2,028779e+003;-4,658135e-004
2,030708e+003;1,336833e-004
2,032636e+003;9,974491e-005
2,034565e+003;1,155827e-003
2,036493e+003;1,422419e-003
2,038422e+003;1,301631e-003
2,040350e+003;1,569177e-003
2,042279e+003;1,428469e-003
2,044207e+003;8,862452e-004
2,046135e+003;1,811832e-003
2,048064e+003;1,766884e-003
2,049992e+003;2,648878e-003
2,051921e+003;2,290356e-003
2,053850e+003;1,108806e-004
2,055778e+003;-9,754632e-004
2,057707e+003;1,275679e-005
2,059635e+003;8,031160e-004
2,061563e+003;8,768824e-004
2,063492e+003;8,945457e-004
2,065420e+003;7,360665e-004
2,067349e+003;1,542664e-004
2,069278e+003;-1,646450e-004
2,071206e+003;1,821097e-004
2,073135e+003;7,692249e-004
2,075063e+003;9,461785e-004
2,076991e+003;7,042051e-004
2,078920e+003;6,753327e-004
2,080848e+003;1,149980e-003
2,082777e+003;1,180180e-003
2,084706e+003;7,317850e-004
2,086634e+003;4,839603e-004
2,088563e+003;3,228787e-004
2,090491e+003;7,591672e-005
2,092419e+003;-4,454243e-004
2,094348e+003;-2,420098e-004
2,096276e+003;8,228013e-004
2,098205e+003;1,179881e-003
2,100134e+003;7,428042e-004
2,102062e+003;3,933797e-004
2,103990e+003;2,496042e-004
2,105919e+003;2,735082e-004
2,107847e+003;1,021643e-004
2,109776e+003;4,505915e-004
2,111704e+003;8,274157e-004
2,113633e+003;1,044912e-003
2,115562e+003;8,620418e-004
2,117490e+003;2,212924e-004
2,119418e+003;-5,834297e-004
2,121347e+003;-6,714390e-004
2,123275e+003;-8,678737e-004
2,125204e+003;-1,501752e-003
2,127132e+003;-1,026504e-003
2,129061e+003;-1,220565e-003
2,130990e+003;-2,340961e-003
2,132918e+003;-3,405516e-003
2,134846e+003;-2,454545e-003
2,136775e+003;-9,828686e-004
2,138703e+003;-1,014935e-003
2,140632e+003;-1,397265e-003
2,142560e+003;-2,546129e-003
2,144489e+003;-3,451966e-003
2,146417e+003;-2,881102e-003
2,148346e+003;-2,111956e-003
2,150274e+003;-1,740716e-003
2,152203e+003;-2,212117e-003
2,154131e+003;-3,820367e-003
2,156060e+003;-4,819378e-003
2,157988e+003;-2,363634e-003
2,159917e+003;2,186044e-003
2,161845e+003;1,723370e-003
2,163774e+003;8,752556e-004
2,165702e+003;2,029290e-003
2,167631e+003;2,701786e-003
2,169559e+003;1,995869e-003
2,171488e+003;5,221749e-004
2,173416e+003;-5,327627e-005
2,175345e+003;7,821370e-004
2,177273e+003;-7,398201e-005
2,179202e+003;-1,852840e-003
2,181130e+003;-2,300391e-003
2,183059e+003;-9,700084e-004
2,184987e+003;-1,009778e-003
2,186916e+003;-9,481927e-005
2,188844e+003;1,156392e-003
2,190773e+003;8,086265e-004
2,192701e+003;6,991274e-004
2,194630e+003;1,446986e-003
2,196558e+003;1,247165e-003
2,198487e+003;9,264543e-004
2,200415e+003;8,841203e-004
2,202344e+003;-3,168446e-004
2,204272e+003;-2,927731e-004
2,206201e+003;3,915557e-004
2,208129e+003;8,116141e-004
2,210058e+003;9,260227e-004
2,211986e+003;9,506281e-004
2,213915e+003;3,440676e-004
2,215843e+003;2,460236e-004
2,217772e+003;6,424138e-004
2,219700e+003;1,168884e-003
2,221629e+003;4,200113e-004
2,223557e+003;-2,898261e-004
2,225486e+003;4,108576e-004
2,227414e+003;5,985812e-004
2,229343e+003;2,314035e-004
2,231271e+003;7,482807e-004
2,233200e+003;8,701758e-004
2,235128e+003;3,664182e-004
2,237057e+003;3,220829e-004
2,238985e+003;6,321272e-004
2,240914e+003;5,746924e-004
2,242842e+003;7,999293e-004
2,244771e+003;1,152405e-003
2,246699e+003;7,397175e-004
2,248628e+003;5,433736e-004
2,250556e+003;9,075612e-004
2,252485e+003;7,775231e-004
2,254413e+003;7,922613e-004
2,256342e+003;9,435883e-004
2,258270e+003;4,348037e-004
2,260199e+003;2,294144e-004
2,262127e+003;3,741450e-004
2,264056e+003;2,231820e-004
2,265984e+003;5,618195e-004
2,267913e+003;1,307048e-003
2,269841e+003;1,212109e-003
2,271770e+003;9,563065e-004
2,273698e+003;5,612224e-004
2,275627e+003;5,850440e-004
2,277555e+003;1,391969e-003
2,279484e+003;1,681789e-003
2,281412e+003;2,068906e-003
2,283341e+003;2,514818e-003
2,285269e+003;2,769140e-003
2,287198e+003;2,646277e-003
2,289126e+003;2,788148e-003
2,291055e+003;2,810091e-003
2,292983e+003;2,152977e-003
2,294912e+003;1,553880e-003
2,296840e+003;1,303991e-003
2,298769e+003;1,603031e-003
2,300697e+003;1,488677e-003
2,302626e+003;1,199982e-003
2,304554e+003;8,534099e-004
2,306483e+003;3,710277e-004
2,308411e+003;5,084743e-004
2,310340e+003;6,528334e-004
2,312268e+003;8,428527e-004
2,314197e+003;8,169919e-004
2,316125e+003;8,233325e-004
2,318054e+003;1,141010e-003
2,319982e+003;1,593154e-003
2,321911e+003;1,725532e-003
2,323839e+003;2,047033e-003
2,325768e+003;1,530338e-003
2,327696e+003;7,038068e-004
2,329625e+003;-8,105632e-004
2,331553e+003;-1,514828e-003
2,333482e+003;-1,256710e-003
2,335410e+003;-9,474277e-004
2,337339e+003;-2,169075e-004
2,339267e+003;-5,023527e-004
2,341196e+003;-1,361330e-003
2,343124e+003;-1,063195e-003
2,345053e+003;3,568683e-005
2,346981e+003;5,898881e-004
2,348910e+003;2,656837e-004
2,350838e+003;-7,505660e-004
2,352767e+003;-1,309304e-003
2,354695e+003;-1,894707e-003
2,356624e+003;-1,862573e-003
2,358552e+003;-5,035442e-004
2,360481e+003;-1,277160e-003
2,362409e+003;-1,244321e-003
2,364338e+003;-5,827886e-005
2,366266e+003;-9,481551e-004
2,368195e+003;-8,043456e-004
2,370123e+003;-2,421092e-004
2,372052e+003;-4,924901e-004
2,373980e+003;-1,199385e-003
2,375909e+003;-1,222019e-003
2,377837e+003;-7,315464e-004
2,379766e+003;-1,654399e-004
2,381694e+003;7,425973e-005
2,383623e+003;-1,895847e-004
2,385551e+003;-2,650577e-004
2,387479e+003;-3,116132e-004
2,389408e+003;-8,869077e-005
2,391337e+003;1,002752e-004
2,393265e+003;-3,053884e-004
2,395194e+003;-4,478406e-004
2,397122e+003;-2,846937e-004
2,399051e+003;-1,092623e-004
2,400979e+003;-3,940169e-004
2,402907e+003;-6,002389e-004
2,404836e+003;-4,592135e-005
2,406765e+003;6,346158e-004
2,408693e+003;5,063844e-004
2,410622e+003;-2,740314e-004
2,412550e+003;-4,571085e-004
2,414479e+003;-6,527357e-006
2,416407e+003;1,000100e-004
2,418335e+003;-1,904127e-004
2,420264e+003;-4,668396e-004
2,422193e+003;8,211391e-005
2,424121e+003;7,089842e-004
2,426050e+003;6,296053e-004
2,427978e+003;-3,538268e-004
2,429906e+003;-8,722055e-004
2,431835e+003;-6,937714e-005
2,433763e+003;1,809164e-004
2,435692e+003;4,236264e-004
2,437621e+003;1,916896e-004
2,439549e+003;-6,096620e-006
2,441478e+003;2,794761e-004
2,443406e+003;5,162700e-004
2,445334e+003;4,699292e-004
2,447263e+003;-5,403826e-005
2,449191e+003;2,126401e-004
2,451120e+003;8,441474e-004
2,453049e+003;7,548194e-004
2,454977e+003;4,367273e-004
2,456906e+003;6,132800e-004
2,458834e+003;6,789167e-004
2,460762e+003;9,957921e-005
2,462691e+003;-5,715504e-004
2,464619e+003;-3,567733e-004
2,466548e+003;-1,812054e-004
2,468477e+003;-8,024323e-005
2,470405e+003;-5,834513e-005
2,472333e+003;-3,779281e-004
2,474262e+003;-6,844953e-005
2,476190e+003;4,330458e-004
2,478119e+003;4,253179e-004
2,480047e+003;1,973912e-004
2,481976e+003;1,093561e-004
2,483905e+003;-3,581642e-005
2,485833e+003;5,106256e-005
2,487761e+003;3,598522e-004
2,489690e+003;5,083059e-005
2,491618e+003;-2,833030e-004
2,493547e+003;-2,296907e-004
2,495475e+003;-3,591570e-004
2,497404e+003;-3,044282e-004
2,499333e+003;4,314266e-005
2,501261e+003;3,595869e-004
2,503189e+003;4,870977e-005
2,505118e+003;-2,366782e-004
2,507046e+003;-3,415439e-004
2,508975e+003;-1,329797e-004
2,510903e+003;2,190381e-004
2,512832e+003;2,286309e-005
2,514760e+003;-2,677730e-004
2,516689e+003;-4,518457e-004
2,518617e+003;-1,348346e-004
2,520546e+003;1,241047e-004
2,522474e+003;2,759285e-004
2,524403e+003;5,033325e-004
2,526331e+003;-9,753566e-005
2,528260e+003;-3,254200e-004
2,530188e+003;1,906951e-004
2,532117e+003;4,585852e-004
2,534045e+003;7,190735e-004
2,535974e+003;7,088846e-004
2,537902e+003;3,833311e-004
2,539831e+003;2,574284e-004
2,541759e+003;1,505872e-004
2,543688e+003;5,745265e-004
2,545616e+003;7,355355e-004
2,547545e+003;4,182204e-004
2,549473e+003;-1,160530e-004
2,551402e+003;4,439984e-006
2,553330e+003;-2,349140e-005
2,555259e+003;-2,933360e-004
2,557187e+003;-7,739422e-005
2,559116e+003;6,620254e-004
2,561044e+003;1,115165e-003
2,562973e+003;9,187177e-004
2,564901e+003;7,010523e-004
2,566830e+003;2,379676e-004
2,568758e+003;2,850794e-004
2,570687e+003;8,056721e-004
2,572615e+003;1,058430e-003
2,574544e+003;7,017492e-004
2,576472e+003;1,727621e-004
2,578401e+003;6,414846e-004
2,580329e+003;1,021796e-003
2,582258e+003;4,401104e-004
2,584186e+003;-9,836382e-005
2,586115e+003;3,201597e-004
2,588043e+003;1,100183e-003
2,589972e+003;1,052219e-003
2,591900e+003;5,064176e-004
2,593829e+003;7,180778e-004
2,595757e+003;9,580997e-004
2,597686e+003;8,930516e-004
2,599614e+003;7,659056e-004
2,601543e+003;5,992447e-004
2,603471e+003;2,719831e-004
2,605400e+003;5,651372e-004
2,607328e+003;9,643759e-004
2,609257e+003;8,268182e-004
2,611185e+003;9,637117e-004
2,613114e+003;1,398584e-003
2,615042e+003;1,225999e-003
2,616971e+003;8,248595e-004
2,618899e+003;4,896989e-004
2,620828e+003;4,968971e-004
2,622756e+003;7,581718e-004
2,624685e+003;9,236319e-004
2,626613e+003;1,063446e-003
2,628542e+003;1,131476e-003
2,630470e+003;6,472254e-004
2,632399e+003;7,073248e-004
2,634327e+003;1,415504e-003
2,636256e+003;1,839150e-003
2,638184e+003;1,599339e-003
2,640113e+003;1,487945e-003
2,642041e+003;1,367638e-003
2,643970e+003;1,423549e-003
2,645898e+003;1,495925e-003
2,647827e+003;1,352049e-003
2,649755e+003;7,655073e-004
2,651684e+003;5,056878e-004
2,653612e+003;9,748364e-004
2,655541e+003;1,135329e-003
2,657469e+003;8,415247e-004
2,659398e+003;1,137987e-003
2,661326e+003;1,340583e-003
2,663255e+003;1,015685e-003
2,665183e+003;5,307670e-004
2,667112e+003;3,729843e-004
2,669040e+003;4,118857e-004
2,670969e+003;1,730936e-004
2,672897e+003;-6,169120e-005
2,674826e+003;8,420175e-005
2,676754e+003;1,426323e-004
2,678683e+003;1,380584e-004
2,680611e+003;1,467092e-004
2,682540e+003;9,099561e-005
2,684468e+003;1,212875e-004
2,686397e+003;2,926058e-004
2,688325e+003;3,141912e-004
2,690254e+003;5,297054e-004
2,692182e+003;4,471420e-004
2,694111e+003;5,503913e-005
2,696039e+003;-3,099908e-004
2,697968e+003;-1,143968e-004
2,699896e+003;1,808170e-004
2,701825e+003;4,155339e-004
2,703753e+003;6,603330e-004
2,705682e+003;5,961590e-004
2,707610e+003;5,849113e-004
2,709539e+003;2,672088e-004
2,711467e+003;-3,505440e-005
2,713396e+003;1,915570e-004
2,715324e+003;5,950973e-004
2,717253e+003;3,968952e-004
2,719181e+003;3,648211e-005
2,721110e+003;1,030591e-004
2,723038e+003;3,627372e-004
2,724967e+003;4,408401e-004
2,726895e+003;4,670102e-004
2,728823e+003;2,672420e-004
2,730752e+003;1,133663e-004
2,732681e+003;-1,145955e-004
2,734609e+003;8,218020e-005
2,736538e+003;4,748383e-004
2,738466e+003;5,901536e-004
2,740395e+003;6,388300e-004
2,742323e+003;6,249930e-004
2,744251e+003;2,515934e-004
2,746180e+003;2,681040e-004
2,748109e+003;2,253699e-004
2,750037e+003;4,342730e-004
2,751966e+003;4,447539e-004
2,753894e+003;1,881427e-004
2,755823e+003;1,225977e-005
2,757751e+003;5,235210e-006
2,759679e+003;2,834548e-004
2,761608e+003;3,939767e-004
2,763537e+003;3,264267e-004
2,765465e+003;3,378003e-004
2,767394e+003;3,636326e-004
2,769322e+003;3,543806e-004
2,771250e+003;3,942420e-004
2,773179e+003;5,827215e-004
2,775107e+003;3,350812e-004
2,777036e+003;1,951039e-004
2,778965e+003;4,308899e-004
2,780893e+003;7,083204e-004
2,782822e+003;6,761623e-004
2,784750e+003;4,624660e-004
2,786678e+003;1,896344e-004
2,788607e+003;-3,349722e-005
2,790535e+003;5,159276e-005
2,792464e+003;4,553015e-004
2,794393e+003;6,655762e-004
2,796321e+003;5,678578e-004
2,798250e+003;6,008373e-004
2,800178e+003;5,061522e-004
2,802106e+003;2,765585e-004
2,804035e+003;3,392262e-004
2,805963e+003;3,815072e-004
2,807892e+003;3,647933e-004
2,809821e+003;3,731501e-004
2,811749e+003;3,965303e-004
2,813677e+003;3,719563e-004
2,815606e+003;5,353783e-004
2,817534e+003;7,842614e-004
2,819463e+003;8,568626e-004
2,821391e+003;6,833968e-004
2,823320e+003;6,156027e-004
2,825249e+003;6,380004e-004
2,827177e+003;1,012829e-003
2,829105e+003;1,418562e-003
2,831034e+003;1,409554e-003
2,832962e+003;1,610148e-003
2,834891e+003;1,614371e-003
2,836819e+003;1,515608e-003
2,838748e+003;1,557937e-003
2,840677e+003;1,286278e-003
2,842605e+003;1,127755e-003
2,844533e+003;1,086398e-003
2,846462e+003;1,339552e-003
2,848390e+003;1,389543e-003
2,850319e+003;1,411748e-003
2,852247e+003;1,567015e-003
2,854176e+003;1,308511e-003
2,856104e+003;1,369799e-003
2,858033e+003;1,880213e-003
2,859961e+003;2,236231e-003
2,861890e+003;1,829867e-003
2,863818e+003;1,808272e-003
2,865747e+003;2,193670e-003
2,867675e+003;1,999697e-003
2,869604e+003;1,903208e-003
2,871532e+003;2,090979e-003
2,873461e+003;2,254117e-003
2,875389e+003;2,259579e-003
2,877318e+003;2,259246e-003
2,879246e+003;2,785747e-003
2,881175e+003;2,826766e-003
2,883103e+003;2,922725e-003
2,885032e+003;3,260871e-003
2,886960e+003;3,060715e-003
2,888889e+003;2,712822e-003
2,890817e+003;2,921858e-003
2,892746e+003;2,778510e-003
2,894674e+003;2,435042e-003
2,896603e+003;2,522117e-003
2,898531e+003;2,767639e-003
2,900460e+003;3,348379e-003
2,902388e+003;3,818471e-003
2,904317e+003;3,441615e-003
2,906245e+003;3,528658e-003
2,908174e+003;3,833614e-003
2,910102e+003;3,818404e-003
2,912031e+003;3,663633e-003
2,913959e+003;3,840667e-003
2,915888e+003;4,491938e-003
2,917816e+003;4,690143e-003
2,919745e+003;4,425924e-003
2,921673e+003;4,388301e-003
2,923602e+003;4,550128e-003
2,925530e+003;4,623462e-003
2,927459e+003;4,695334e-003
2,929387e+003;4,924026e-003
2,931316e+003;5,415856e-003
2,933244e+003;5,552929e-003
2,935173e+003;5,531250e-003
2,937101e+003;5,931992e-003
2,939030e+003;6,110154e-003
2,940958e+003;5,867168e-003
2,942887e+003;5,638617e-003
2,944815e+003;4,979391e-003
2,946744e+003;4,430242e-003
2,948672e+003;4,611305e-003
2,950601e+003;5,137616e-003
2,952529e+003;5,328703e-003
2,954458e+003;5,776398e-003
2,956386e+003;6,405361e-003
2,958315e+003;6,863189e-003
2,960243e+003;6,862314e-003
2,962172e+003;6,310007e-003
2,964100e+003;6,228152e-003
2,966029e+003;6,065833e-003
2,967957e+003;5,326958e-003
2,969886e+003;4,645397e-003
2,971814e+003;4,303328e-003
2,973743e+003;4,012957e-003
2,975671e+003;3,761817e-003
2,977600e+003;3,426520e-003
2,979528e+003;3,414030e-003
2,981457e+003;3,762385e-003
2,983385e+003;3,952934e-003
2,985314e+003;3,462757e-003
2,987242e+003;3,488608e-003
2,989171e+003;3,893520e-003
2,991099e+003;3,887202e-003
2,993028e+003;3,618960e-003
2,994956e+003;3,464026e-003
2,996885e+003;3,368447e-003
2,998813e+003;3,563901e-003
3,000742e+003;3,883925e-003
3,002670e+003;4,022890e-003
3,004599e+003;3,975505e-003
3,006527e+003;4,255276e-003
3,008456e+003;4,513733e-003
3,010384e+003;4,252532e-003
3,012313e+003;4,068809e-003
3,014241e+003;3,701360e-003
3,016170e+003;3,441615e-003
3,018098e+003;2,973099e-003
3,020027e+003;2,982307e-003
3,021955e+003;3,330515e-003
3,023884e+003;3,014402e-003
3,025812e+003;2,289589e-003
3,027741e+003;1,986249e-003
3,029669e+003;1,686247e-003
3,031598e+003;1,725332e-003
3,033526e+003;2,184745e-003
3,035455e+003;2,229004e-003
3,037383e+003;2,234800e-003
3,039312e+003;2,187875e-003
3,041240e+003;1,592688e-003
3,043169e+003;1,318016e-003
3,045097e+003;1,129449e-003
3,047026e+003;7,245165e-004
3,048954e+003;6,909302e-004
3,050883e+003;8,360471e-004
3,052811e+003;9,666008e-004
3,054740e+003;9,858286e-004
3,056668e+003;4,499613e-004
3,058597e+003;5,050907e-004
3,060525e+003;1,194466e-003
3,062454e+003;8,471353e-004
3,064382e+003;5,434399e-004
3,066311e+003;7,509692e-004
3,068239e+003;1,188353e-003
3,070167e+003;9,145672e-004
3,072096e+003;9,573479e-005
3,074025e+003;-7,620762e-006
3,075953e+003;-4,327090e-005
3,077882e+003;-4,871946e-004
3,079810e+003;-3,911037e-004
3,081739e+003;-1,433805e-004
3,083667e+003;-3,276833e-005
3,085595e+003;-8,123706e-005
3,087524e+003;-4,310918e-004
3,089453e+003;-2,705877e-004
3,091381e+003;-8,945270e-005
3,093310e+003;-2,754553e-004
3,095238e+003;-5,907424e-004
3,097167e+003;-3,217449e-004
3,099095e+003;-2,882566e-005
3,101023e+003;-3,702145e-004
3,102952e+003;-2,620774e-004
3,104881e+003;-2,339200e-005
3,106809e+003;-6,752192e-005
3,108738e+003;4,177892e-004
3,110666e+003;5,767494e-004
3,112594e+003;4,356660e-004
3,114523e+003;-2,362146e-004
3,116451e+003;-7,071008e-004
3,118380e+003;6,912310e-005
3,120309e+003;1,354399e-004
3,122237e+003;-6,610840e-004
3,124166e+003;-2,945942e-004
3,126094e+003;3,787386e-005
3,128022e+003;2,990714e-004
3,129951e+003;1,348576e-005
3,131879e+003;-1,684870e-004
3,133808e+003;8,913971e-005
3,135737e+003;-2,963822e-004
3,137665e+003;-5,958050e-004
3,139594e+003;-9,745376e-004
3,141522e+003;-5,390875e-004
3,143450e+003;2,387964e-004
3,145379e+003;4,421668e-004
3,147307e+003;1,319598e-004
3,149236e+003;-2,173380e-004
3,151165e+003;-2,185634e-004
3,153093e+003;-2,367444e-004
3,155021e+003;-3,280025e-004
3,156950e+003;-3,475033e-004
3,158878e+003;-4,502900e-004
3,160807e+003;-4,782584e-004
3,162735e+003;-6,480488e-004
3,164664e+003;-7,151062e-004
3,166593e+003;-2,638656e-004
3,168521e+003;8,930542e-005
3,170449e+003;-8,620622e-005
3,172378e+003;-2,898261e-004
3,174306e+003;8,877517e-005
3,176235e+003;3,316844e-005
3,178163e+003;-4,458215e-004
3,180092e+003;-1,686490e-005
3,182021e+003;-3,457155e-004
3,183949e+003;-9,471632e-004
3,185877e+003;-1,104179e-003
3,187806e+003;-1,073606e-003
3,189734e+003;-4,546923e-004
3,191663e+003;2,338236e-004
3,193591e+003;3,626046e-004
3,195520e+003;-4,110320e-004
3,197448e+003;-1,656290e-003
3,199377e+003;-1,848881e-003
3,201305e+003;-1,098858e-003
3,203234e+003;-7,706101e-004
3,205162e+003;-7,436198e-004
3,207091e+003;-5,869041e-004
3,209019e+003;-7,356150e-004
3,210948e+003;-4,228826e-004
3,212876e+003;-5,407752e-004
3,214805e+003;-1,311782e-003
3,216733e+003;-1,300583e-003
3,218662e+003;-1,272139e-003
3,220590e+003;-1,571418e-003
3,222519e+003;-1,540648e-003
3,224447e+003;-1,536653e-003
3,226376e+003;-1,795990e-003
3,228304e+003;-1,983407e-003
3,230233e+003;-1,528365e-003
3,232161e+003;-1,504229e-003
3,234090e+003;-1,401625e-003
3,236018e+003;-1,303424e-003
3,237947e+003;-1,444889e-003
3,239875e+003;-1,138120e-003
3,241804e+003;-1,304778e-003
3,243732e+003;-1,590533e-003
3,245661e+003;-1,398025e-003
3,247589e+003;-1,789687e-003
3,249518e+003;-1,499672e-003
3,251446e+003;-1,205167e-003
3,253375e+003;-1,563164e-003
3,255303e+003;-1,826544e-003
3,257232e+003;-1,299394e-003
3,259160e+003;-1,287666e-003
3,261089e+003;-1,428773e-003
3,263017e+003;-1,310791e-003
3,264946e+003;-1,116837e-003
3,266874e+003;-1,265994e-003
3,268803e+003;-1,770779e-003
3,270731e+003;-1,155932e-003
3,272660e+003;-1,051626e-003
3,274588e+003;-1,583336e-003
3,276517e+003;-1,437194e-003
3,278445e+003;-1,256743e-003
3,280374e+003;-1,440992e-003
3,282302e+003;-1,978295e-003
3,284231e+003;-2,043696e-003
3,286159e+003;-1,807902e-003
3,288088e+003;-1,247757e-003
3,290016e+003;-1,272040e-003
3,291945e+003;-1,366185e-003
3,293873e+003;-1,141920e-003
3,295802e+003;-1,290837e-003
3,297730e+003;-1,144828e-003
3,299659e+003;-7,514260e-004
3,301587e+003;-8,191288e-004
3,303516e+003;-1,274617e-003
3,305444e+003;-1,702036e-003
3,307373e+003;-2,084290e-003
3,309301e+003;-2,085445e-003
3,311230e+003;-1,605851e-003
3,313158e+003;-1,254794e-003
3,315087e+003;-1,798300e-003
3,317015e+003;-2,310311e-003
3,318944e+003;-2,297095e-003
3,320872e+003;-1,956822e-003
3,322801e+003;-1,026967e-003
3,324729e+003;-1,238341e-003
3,326658e+003;-1,705436e-003
3,328586e+003;-1,497823e-003
3,330515e+003;-1,361627e-003
3,332443e+003;-1,759526e-003
3,334372e+003;-2,022061e-003
3,336300e+003;-2,831727e-003
3,338229e+003;-2,730293e-003
3,340157e+003;-2,180271e-003
3,342086e+003;-2,156896e-003
3,344014e+003;-2,517767e-003
3,345943e+003;-2,270199e-003
3,347871e+003;-1,899787e-003
3,349800e+003;-2,185546e-003
3,351728e+003;-2,655313e-003
3,353657e+003;-2,578607e-003
3,355585e+003;-2,343993e-003
3,357514e+003;-2,057316e-003
3,359442e+003;-2,349002e-003
3,361371e+003;-2,610029e-003
3,363299e+003;-3,071704e-003
3,365228e+003;-2,430263e-003
3,367156e+003;-1,817635e-003
3,369085e+003;-1,718208e-003
3,371013e+003;-2,332326e-003
3,372942e+003;-2,759497e-003
3,374870e+003;-2,807761e-003
3,376799e+003;-2,969141e-003
3,378727e+003;-2,941431e-003
3,380656e+003;-2,755250e-003
3,382584e+003;-2,664435e-003
3,384513e+003;-2,261036e-003
3,386441e+003;-1,709561e-003
3,388370e+003;-2,597381e-003
3,390298e+003;-2,689396e-003
3,392227e+003;-2,511112e-003
3,394155e+003;-2,917373e-003
3,396083e+003;-3,297639e-003
3,398012e+003;-3,208482e-003
3,399941e+003;-2,639077e-003
3,401869e+003;-2,295809e-003
3,403798e+003;-2,224018e-003
3,405726e+003;-2,540200e-003
3,407655e+003;-3,253901e-003
3,409583e+003;-4,193444e-003
3,411511e+003;-4,224061e-003
3,413440e+003;-3,458179e-003
3,415369e+003;-2,440971e-003
3,417297e+003;-1,640545e-003
3,419226e+003;-2,480079e-003
3,421154e+003;-2,835118e-003
3,423083e+003;-2,216271e-003
3,425011e+003;-2,591321e-003
3,426939e+003;-2,653271e-003
3,428868e+003;-2,408153e-003
3,430797e+003;-2,644972e-003
3,432725e+003;-2,768453e-003
3,434654e+003;-2,919315e-003
3,436582e+003;-3,585174e-003
3,438510e+003;-3,271068e-003
3,440439e+003;-2,405385e-003
3,442367e+003;-2,411316e-003
3,444296e+003;-3,175295e-003
3,446225e+003;-3,543800e-003
3,448153e+003;-3,088844e-003
3,450082e+003;-2,583581e-003
3,452010e+003;-2,546788e-003
3,453938e+003;-2,581012e-003
3,455867e+003;-2,103515e-003
3,457795e+003;-2,178953e-003
3,459724e+003;-3,156743e-003
3,461653e+003;-2,960650e-003
3,463581e+003;-2,279164e-003
3,465510e+003;-2,118419e-003
3,467438e+003;-2,435040e-003
3,469366e+003;-2,820304e-003
3,471295e+003;-2,231204e-003
3,473223e+003;-1,951610e-003
3,475152e+003;-2,467988e-003
3,477081e+003;-3,060090e-003
3,479009e+003;-3,175690e-003
3,480938e+003;-2,315980e-003
3,482866e+003;-2,197447e-003
3,484794e+003;-2,704477e-003
3,486723e+003;-3,044428e-003
3,488651e+003;-3,293528e-003
3,490580e+003;-3,099306e-003
3,492509e+003;-2,457016e-003
3,494437e+003;-1,386366e-003
3,496365e+003;-8,412531e-004
3,498294e+003;-1,323872e-003
3,500222e+003;-2,146115e-003
3,502151e+003;-3,108814e-003
3,504079e+003;-3,255677e-003
3,506008e+003;-2,722324e-003
3,507937e+003;-2,178524e-003
3,509865e+003;-1,350694e-003
3,511793e+003;-1,096908e-003
3,513722e+003;-1,991752e-003
3,515650e+003;-1,864223e-003
3,517579e+003;-1,563329e-003
3,519507e+003;-2,087126e-003
3,521436e+003;-2,402354e-003
3,523365e+003;-2,180238e-003
3,525293e+003;-1,930004e-003
3,527221e+003;-1,375467e-003
3,529150e+003;-1,990366e-003
3,531078e+003;-2,259355e-003
3,533007e+003;-1,373056e-003
3,534935e+003;-1,597994e-003
3,536864e+003;-3,051568e-003
3,538792e+003;-2,854934e-003
3,540721e+003;-2,563983e-003
3,542649e+003;-3,204733e-003
3,544578e+003;-3,364025e-003
3,546506e+003;-2,500504e-003
3,548435e+003;-2,272407e-003
3,550363e+003;-2,296534e-003
3,552292e+003;-1,715997e-003
3,554220e+003;-2,047455e-003
3,556149e+003;-2,540101e-003
3,558077e+003;-2,056590e-003
3,560006e+003;-1,310791e-003
3,561934e+003;-1,275376e-003
3,563863e+003;-1,800213e-003
3,565791e+003;-3,147796e-003
3,567720e+003;-4,342861e-003
3,569648e+003;-4,220845e-003
3,571577e+003;-3,147829e-003
3,573505e+003;-2,724333e-003
3,575434e+003;-2,150929e-003
3,577362e+003;-2,110868e-003
3,579291e+003;-2,123398e-003
3,581219e+003;-1,699198e-003
3,583148e+003;-1,976447e-003
3,585076e+003;-2,687684e-003
3,587005e+003;-3,105129e-003
3,588933e+003;-3,067953e-003
3,590862e+003;-2,796535e-003
3,592790e+003;-2,273759e-003
3,594719e+003;-2,127519e-003
3,596647e+003;-2,389371e-003
3,598576e+003;-2,109087e-003
3,600504e+003;-1,254497e-003
3,602433e+003;-8,463790e-004
3,604361e+003;-1,757117e-003
3,606290e+003;-2,006528e-003
3,608218e+003;-1,736327e-003
3,610147e+003;-1,245246e-003
3,612075e+003;-1,531403e-003
3,614004e+003;-2,413985e-003
3,615932e+003;-2,915826e-003
3,617861e+003;-2,370225e-003
3,619789e+003;-1,844592e-003
3,621718e+003;-1,315250e-003
3,623646e+003;-1,045974e-003
3,625575e+003;-1,801434e-003
3,627503e+003;-2,680439e-003
3,629432e+003;-2,076739e-003
3,631360e+003;-1,185969e-003
3,633289e+003;-8,469411e-004
3,635217e+003;-1,268848e-004
3,637146e+003;-1,494751e-004
3,639074e+003;-9,912986e-004
3,641003e+003;-1,730386e-003
3,642931e+003;-1,516545e-003
3,644860e+003;-2,244719e-003
3,646788e+003;-3,583466e-003
3,648717e+003;-3,026562e-003
3,650645e+003;-7,849645e-004
3,652574e+003;-8,619214e-004
3,654502e+003;-1,186300e-003
3,656431e+003;-1,518196e-003
3,658359e+003;-9,040153e-004
3,660288e+003;-5,257839e-004
3,662216e+003;-3,592563e-004
3,664145e+003;-3,973604e-004
3,666073e+003;-7,943244e-004
3,668002e+003;-1,389702e-003
3,669930e+003;-1,766951e-003
3,671859e+003;-1,498681e-003
3,673787e+003;-2,296798e-003
3,675716e+003;-2,320165e-003
3,677644e+003;-3,294593e-004
3,679573e+003;-1,176321e-003
3,681501e+003;-1,234310e-003
3,683430e+003;-7,627712e-004
3,685358e+003;-8,554730e-004
3,687287e+003;-1,182169e-003
3,689215e+003;-6,098674e-004
3,691144e+003;-9,682892e-004
3,693072e+003;-1,275608e-003
3,695001e+003;-1,319214e-003
3,696929e+003;-4,270534e-004
3,698858e+003;1,472063e-004
3,700786e+003;2,922080e-004
3,702715e+003;5,332883e-004
3,704643e+003;-1,616640e-004
3,706572e+003;-1,627239e-004
3,708500e+003;-1,135355e-004
3,710429e+003;-4,801780e-004
3,712357e+003;-9,558584e-004
3,714286e+003;-5,127116e-004
3,716214e+003;-5,581155e-004
3,718143e+003;-1,204474e-003
3,720071e+003;-7,579420e-004
3,722000e+003;-1,381313e-003
3,723928e+003;-1,526351e-003
3,725857e+003;-3,341607e-004
3,727785e+003;-3,388290e-004
3,729714e+003;-1,308082e-003
3,731642e+003;-2,068792e-003
3,733571e+003;-7,696179e-004
3,735499e+003;3,930481e-004
3,737427e+003;-1,008026e-003
3,739356e+003;-6,341200e-004
3,741285e+003;-3,540254e-004
3,743213e+003;-5,747933e-004
3,745142e+003;-6,437809e-004
3,747070e+003;-9,908688e-004
3,748999e+003;-6,364690e-004
3,750927e+003;7,104112e-004
3,752855e+003;8,814310e-004
3,754784e+003;1,569180e-004
3,756713e+003;1,054785e-004
3,758641e+003;8,250587e-004
3,760570e+003;5,987471e-004
3,762498e+003;6,786382e-005
3,764427e+003;-3,940500e-004
3,766355e+003;2,678056e-004
3,768283e+003;5,817261e-004
3,770212e+003;3,501360e-004
3,772141e+003;6,327908e-004
3,774069e+003;7,933899e-004
3,775998e+003;6,416506e-004
3,777926e+003;7,581730e-005
3,779854e+003;1,172961e-005
3,781783e+003;1,633539e-005
3,783711e+003;-5,864740e-004
3,785640e+003;5,238808e-005
3,787569e+003;5,241653e-004
3,789497e+003;1,950708e-004
3,791426e+003;-3,671687e-004
3,793354e+003;-9,876291e-004
3,795282e+003;-8,726685e-004
3,797211e+003;-1,169613e-003
3,799139e+003;-2,078685e-003
3,801068e+003;-3,255193e-004
3,802997e+003;1,150213e-003
3,804925e+003;-3,806758e-004
3,806854e+003;-5,310127e-004
3,808782e+003;-2,632364e-004
3,810710e+003;-1,961092e-004
3,812639e+003;-2,928950e-005
3,814567e+003;-4,898424e-004
3,816496e+003;-6,729278e-004
3,818425e+003;-8,450231e-004
3,820353e+003;-2,628722e-004
3,822281e+003;1,271822e-003
3,824210e+003;8,859796e-004
3,826138e+003;2,353817e-004
3,828067e+003;-1,036586e-003
3,829995e+003;-1,273328e-003
3,831924e+003;-4,874594e-004
3,833853e+003;3,371040e-004
3,835781e+003;3,043765e-004
3,837709e+003;-6,595290e-004
3,839638e+003;-1,478638e-003
3,841566e+003;-4,536993e-004
3,843495e+003;5,812099e-005
3,845423e+003;-1,709711e-004
3,847352e+003;-2,545273e-004
3,849281e+003;-1,068021e-003
3,851209e+003;-2,220721e-003
3,853137e+003;1,147252e-004
3,855066e+003;1,524253e-003
3,856994e+003;7,515998e-004
3,858923e+003;4,596135e-004
3,860851e+003;-2,059455e-004
3,862780e+003;-5,695981e-004
3,864708e+003;-1,916050e-004
3,866637e+003;-7,785150e-004
3,868565e+003;-2,188019e-003
3,870494e+003;-8,984604e-004
3,872422e+003;3,144564e-004
3,874351e+003;3,827674e-004
3,876279e+003;4,393808e-004
3,878208e+003;5,396579e-004
3,880136e+003;4,650200e-004
3,882065e+003;-2,975335e-005
3,883993e+003;-9,336407e-004
3,885922e+003;2,415480e-004
3,887850e+003;1,134698e-003
3,889779e+003;-1,285742e-004
3,891707e+003;-1,324929e-003
3,893636e+003;-4,675677e-004
3,895564e+003;-3,246585e-004
3,897493e+003;-1,172091e-003
3,899421e+003;-8,132420e-004
3,901350e+003;-2,528385e-004
3,903278e+003;-4,142429e-004
3,905207e+003;-4,245377e-004
3,907135e+003;-2,808196e-004
3,909064e+003;-2,142912e-004
3,910992e+003;-1,455997e-004
3,912921e+003;3,180984e-005
3,914849e+003;-2,039253e-004
3,916778e+003;-4,602074e-005
3,918706e+003;-7,856921e-004
3,920635e+003;-7,415029e-004
3,922563e+003;-3,405837e-004
3,924492e+003;5,269520e-004
3,926420e+003;1,159482e-003
3,928349e+003;8,951765e-004
3,930277e+003;2,314698e-004
3,932206e+003;-7,790442e-004
3,934134e+003;-7,888011e-004
3,936063e+003;-4,932182e-004
3,937991e+003;-5,932572e-004
3,939920e+003;-3,746506e-004
3,941848e+003;-6,918507e-004
3,943777e+003;-6,515888e-004
3,945705e+003;-6,278998e-004
3,947634e+003;-2,692300e-004
3,949562e+003;1,838997e-004
3,951491e+003;-6,825559e-006
3,953419e+003;3,158491e-004
3,955348e+003;4,626650e-004
3,957276e+003;4,208405e-004
3,959205e+003;3,439018e-004
3,961133e+003;3,785888e-004
3,963062e+003;2,746686e-004
3,964990e+003;-2,044883e-004
3,966919e+003;-1,758399e-004
3,968847e+003;2,395920e-004
3,970776e+003;2,849537e-006
3,972704e+003;-3,375378e-004
3,974633e+003;-1,619290e-004
3,976561e+003;6,601671e-004
3,978490e+003;1,445457e-003
3,980418e+003;8,659594e-004
3,982347e+003;-1,897172e-004
3,984275e+003;-6,378917e-004
3,986204e+003;-4,979179e-004
3,988132e+003;-2,994616e-004
3,990061e+003;-1,938902e-004
3,991989e+003;3,409627e-005
3,993918e+003;-3,876509e-005
3,995846e+003;9,815412e-005
3,997775e+003;-1,284417e-004
3,999703e+003;-1,199436e-005
4,001632e+003;-4,638518e-005
4,003560e+003;1,172441e-004
4,005489e+003;9,210088e-004
4,007417e+003;5,427432e-004
4,009346e+003;1,106691e-005
4,011274e+003;1,520787e-004
4,013203e+003;2,110690e-005
4,015131e+003;4,144394e-004
4,017060e+003;8,867100e-004
4,018988e+003;4,536099e-004
4,020917e+003;1,450519e-004
4,022845e+003;2,763595e-004
4,024774e+003;1,189528e-005
4,026702e+003;-8,620622e-005
4,028631e+003;-9,191589e-004
4,030559e+003;-9,642228e-004
4,032488e+003;-6,211171e-004
4,034416e+003;-5,247580e-004
4,036345e+003;-2,375646e-005
4,038273e+003;-1,031009e-004
4,040202e+003;2,885276e-004
4,042130e+003;5,298381e-004
4,044059e+003;4,085691e-004
4,045987e+003;7,161861e-004
4,047916e+003;3,681095e-004
4,049844e+003;-4,931189e-004
4,051773e+003;-9,291442e-004
4,053701e+003;-4,637945e-004
4,055630e+003;7,630510e-004
4,057558e+003;8,092904e-004
4,059487e+003;4,071099e-004
4,061415e+003;5,248289e-004
4,063344e+003;3,795506e-004
4,065272e+003;-1,645125e-004
4,067201e+003;-4,622389e-004
4,069129e+003;-3,454506e-004
4,071058e+003;-3,802123e-004
4,072986e+003;4,084365e-004
4,074915e+003;8,988620e-004
4,076843e+003;1,856566e-004
4,078771e+003;-6,420902e-005
4,080700e+003;-2,023687e-004
4,082629e+003;2,351165e-004
4,084557e+003;7,925268e-004
4,086486e+003;4,668444e-004
4,088414e+003;-1,577556e-004
4,090343e+003;-1,553959e-005
4,092271e+003;1,942420e-004
4,094199e+003;1,126704e-004
4,096128e+003;6,658417e-004
4,098057e+003;1,020700e-003
4,099985e+003;4,480707e-004
4,101914e+003;3,780582e-004
4,103842e+003;5,481177e-004
4,105771e+003;3,026192e-004
4,107699e+003;1,050259e-003
4,109627e+003;1,121875e-003
4,111556e+003;4,925517e-004
4,113484e+003;4,285019e-004
4,115413e+003;1,451182e-004
4,117341e+003;-1,846168e-004
4,119270e+003;-4,854074e-004
4,121199e+003;-7,587359e-004
4,123127e+003;-3,148580e-004
4,125056e+003;-1,047572e-004
4,126984e+003;-1,100905e-004
4,128913e+003;-2,597263e-004
4,130841e+003;-5,518611e-004
4,132770e+003;-6,652805e-005
4,134698e+003;5,709765e-004
4,136626e+003;5,560136e-004
4,138555e+003;1,060302e-005
4,140483e+003;8,316723e-006
4,142412e+003;3,353134e-004
4,144340e+003;3,423101e-004
4,146269e+003;4,380209e-004
4,148197e+003;1,046830e-004
4,150126e+003;-4,583001e-004
4,152055e+003;1,970928e-004
4,153983e+003;-3,306651e-005
4,155912e+003;-1,071423e-004
4,157840e+003;4,489894e-005
4,159769e+003;3,762011e-004
4,161697e+003;4,123168e-004
4,163625e+003;-3,369601e-005
4,165554e+003;1,027608e-004
4,167482e+003;4,670102e-004
4,169411e+003;3,869128e-004
4,171339e+003;3,000329e-004
4,173268e+003;-5,394515e-004
4,175196e+003;-8,562336e-004
4,177125e+003;-4,291719e-004
4,179053e+003;5,199042e-005
4,180982e+003;1,177743e-004
4,182911e+003;-1,587493e-004
4,184839e+003;3,816067e-004
4,186768e+003;5,793373e-004
4,188696e+003;-1,716998e-004
4,190625e+003;-5,164844e-004
4,192553e+003;4,152686e-004
4,194481e+003;1,095201e-003
4,196410e+003;1,421854e-003
4,198338e+003;1,279831e-003
4,200267e+003;5,490134e-004
4,202195e+003;6,019323e-004
4,204124e+003;9,753013e-004
4,206052e+003;1,422385e-003
4,207981e+003;1,845938e-003
4,209909e+003;1,285547e-003
4,211838e+003;4,267773e-004
4,213767e+003;-1,154237e-004
4,215695e+003;-2,117213e-005
4,217624e+003;-2,034616e-004
4,219552e+003;4,327141e-004
4,221480e+003;9,296752e-004
4,223409e+003;3,426748e-004
4,225337e+003;-1,166824e-004
4,227266e+003;-1,389751e-004
4,229194e+003;2,710449e-005
4,231123e+003;4,412050e-004
4,233051e+003;4,077732e-004
4,234980e+003;3,447971e-004
4,236908e+003;4,611060e-004
4,238837e+003;2,763927e-004
4,240765e+003;3,695354e-004
4,242694e+003;2,462557e-004
4,244623e+003;-3,834566e-004
4,246551e+003;8,201449e-005
4,248479e+003;6,403564e-004
4,250408e+003;2,078333e-004
4,252336e+003;-3,928251e-004
4,254265e+003;-2,256505e-004
4,256193e+003;4,863486e-004
4,258122e+003;4,135325e-005
4,260050e+003;4,552683e-004
4,261979e+003;1,028272e-003
4,263907e+003;6,270835e-004
4,265836e+003;1,332193e-004
4,267764e+003;2,797745e-004
4,269693e+003;6,028613e-004
4,271621e+003;7,139624e-004
4,273550e+003;8,189173e-004
4,275479e+003;-3,445567e-004
4,277407e+003;-9,302352e-004
4,279335e+003;4,055511e-004
4,281264e+003;6,199826e-004
4,283192e+003;9,775263e-004
4,285121e+003;1,397288e-003
4,287049e+003;1,077629e-003
4,288978e+003;3,606481e-004
4,290906e+003;-4,373473e-005
4,292835e+003;1,543658e-004
4,294763e+003;6,164654e-004
4,296692e+003;9,676217e-005
4,298620e+003;-2,916473e-004
4,300549e+003;7,184054e-005
4,302477e+003;6,225376e-004
4,304406e+003;5,207816e-004
4,306334e+003;-4,679318e-004
4,308263e+003;-4,655818e-004
4,310191e+003;-2,395525e-005
4,312120e+003;1,605641e-004
4,314048e+003;-2,262465e-004
4,315977e+003;-1,226611e-003
4,317905e+003;-7,250299e-004
4,319834e+003;3,162470e-004
4,321762e+003;5,401887e-004
4,323691e+003;8,217058e-004
4,325619e+003;1,544237e-003
4,327548e+003;8,585890e-004
4,329476e+003;-6,917836e-005
4,331405e+003;-5,476712e-005
4,333333e+003;-3,215793e-004
4,335262e+003;-5,407421e-004
4,337190e+003;-6,177753e-004
4,339119e+003;-3,981549e-004
4,341047e+003;4,274501e-005
4,342976e+003;6,239312e-004
4,344904e+003;5,853426e-004
4,346833e+003;7,666358e-004
4,348761e+003;6,717818e-004
4,350690e+003;6,405223e-004
4,352618e+003;7,393524e-004
4,354547e+003;7,073248e-004
4,356475e+003;-2,308829e-004
4,358404e+003;-5,006265e-005
4,360332e+003;1,120513e-003
4,362261e+003;7,928256e-004
4,364189e+003;-3,084346e-004
4,366118e+003;3,489422e-004
4,368046e+003;-1,351658e-004
4,369975e+003;-1,520917e-004
4,371903e+003;6,346822e-004
4,373832e+003;9,248937e-004
4,375760e+003;1,393498e-003
4,377688e+003;1,036243e-003
4,379617e+003;2,758291e-004
4,381546e+003;-2,675743e-004
4,383474e+003;-1,310254e-004
4,385403e+003;1,444668e-005
4,387331e+003;-1,980964e-004
4,389260e+003;3,953033e-004
4,391188e+003;6,943484e-004
4,393117e+003;2,527869e-004
4,395045e+003;-3,240388e-005
4,396974e+003;-9,248128e-004
4,398902e+003;-3,801130e-004
4,400831e+003;1,688507e-004
4,402759e+003;-1,079704e-004
4,404688e+003;8,231276e-005
4,406616e+003;1,170121e-004
4,408544e+003;2,808023e-004
4,410473e+003;1,545315e-004
4,412402e+003;-2,538651e-004
4,414330e+003;-3,298235e-004
4,416259e+003;2,958883e-004
4,418187e+003;7,036409e-004
4,420116e+003;5,996760e-004
4,422044e+003;1,352880e-003
4,423973e+003;1,217758e-003
4,425901e+003;2,703916e-004
4,427830e+003;3,785225e-004
4,429758e+003;8,925204e-004
4,431687e+003;1,835889e-003
4,433615e+003;2,198132e-003
4,435543e+003;1,074806e-003
4,437472e+003;-5,639395e-004
4,439400e+003;-1,128205e-003
4,441329e+003;-1,915719e-004
4,443258e+003;6,133795e-004
4,445186e+003;1,748835e-004
4,447115e+003;-4,110320e-004
4,449043e+003;-6,290909e-004
4,450972e+003;-1,075729e-004
4,452900e+003;-2,871440e-004
4,454829e+003;1,386550e-004
4,456757e+003;9,563065e-004
4,458686e+003;5,083416e-004
4,460614e+003;-1,791519e-004
4,462542e+003;-9,282514e-004
4,464471e+003;-7,290655e-004
4,466399e+003;1,249333e-004
4,468328e+003;-1,119786e-004
4,470256e+003;1,871151e-004
4,472185e+003;1,082293e-004
4,474113e+003;-7,563843e-005
4,476042e+003;9,642763e-004
4,477971e+003;1,058165e-003
4,479899e+003;7,116060e-004
4,481828e+003;6,504774e-004
4,483756e+003;1,284583e-003
4,485685e+003;1,012463e-003
4,487613e+003;7,415762e-004
4,489542e+003;3,925838e-004
4,491470e+003;7,525392e-005
4,493398e+003;-3,820000e-004
4,495327e+003;-7,537744e-004
4,497255e+003;-6,115549e-004
4,499184e+003;-1,611341e-004
