5,245513e+002;5,133924e-001
5,264797e+002;2,522998e-001
5,284083e+002;5,277767e-002
5,303367e+002;-1,728190e-002
5,322653e+002;-4,759584e-002
5,341937e+002;4,420617e-002
5,361223e+002;4,901397e-002
5,380507e+002;3,239853e-002
5,399792e+002;5,740373e-002
5,419077e+002;2,150446e-003
5,438362e+002;-2,793107e-002
5,457647e+002;4,100616e-004
5,476932e+002;3,375580e-002
5,496217e+002;4,151850e-002
5,515502e+002;3,150323e-002
5,534787e+002;2,287123e-002
5,554072e+002;2,141914e-002
5,573357e+002;2,538855e-002
5,592642e+002;1,222165e-002
5,611927e+002;6,944187e-003
5,631212e+002;2,097767e-002
5,650497e+002;2,326124e-002
5,669782e+002;2,266556e-002
5,689067e+002;3,388159e-002
5,708352e+002;4,556146e-002
5,727637e+002;4,000154e-002
5,746922e+002;4,926509e-002
5,766207e+002;3,710919e-002
5,785492e+002;-7,201673e-004
5,804777e+002;1,241583e-003
5,824062e+002;9,746448e-003
5,843347e+002;8,993712e-003
5,862632e+002;1,511560e-002
5,881917e+002;2,786826e-002
5,901202e+002;4,004896e-002
5,920486e+002;3,639380e-002
5,939772e+002;2,579683e-002
5,959056e+002;2,307755e-002
5,978342e+002;2,405564e-002
5,997626e+002;2,226792e-002
6,016912e+002;1,803585e-002
6,036196e+002;1,723573e-002
6,055482e+002;2,041508e-002
6,074766e+002;2,211410e-002
6,094052e+002;1,857555e-002
6,113336e+002;1,487806e-002
6,132621e+002;1,535617e-002
6,151906e+002;1,822520e-002
6,171191e+002;2,255121e-002
6,190476e+002;2,968274e-002
6,209761e+002;3,206425e-002
6,229046e+002;2,525930e-002
6,248331e+002;2,393504e-002
6,267616e+002;2,600293e-002
6,286901e+002;2,762833e-002
6,306186e+002;2,779284e-002
6,325471e+002;2,651085e-002
6,344756e+002;2,589428e-002
6,364041e+002;2,611372e-002
6,383326e+002;2,525329e-002
6,402611e+002;2,601968e-002
6,421896e+002;2,513752e-002
6,441181e+002;2,128219e-002
6,460466e+002;2,090719e-002
6,479751e+002;2,118341e-002
6,499036e+002;2,001717e-002
6,518321e+002;1,975206e-002
6,537606e+002;2,171742e-002
6,556891e+002;2,223800e-002
6,576176e+002;2,168774e-002
6,595461e+002;2,261851e-002
6,614745e+002;2,368359e-002
6,634031e+002;2,351693e-002
6,653315e+002;2,411906e-002
6,672601e+002;2,454193e-002
6,691885e+002;2,356439e-002
6,711171e+002;2,312563e-002
6,730455e+002;2,372646e-002
6,749741e+002;2,386198e-002
6,769025e+002;2,438965e-002
6,788311e+002;2,562099e-002
6,807595e+002;2,604244e-002
6,826880e+002;2,513959e-002
6,846165e+002;2,531180e-002
6,865450e+002;2,553169e-002
6,884735e+002;2,530987e-002
6,904020e+002;2,548492e-002
6,923305e+002;2,588886e-002
6,942590e+002;2,533242e-002
6,961875e+002;2,503726e-002
6,981160e+002;2,532410e-002
7,000445e+002;2,549349e-002
7,019730e+002;2,619955e-002
7,039015e+002;2,754172e-002
7,058300e+002;2,833451e-002
7,077585e+002;2,798204e-002
7,096870e+002;2,650740e-002
7,116155e+002;2,298957e-002
7,135440e+002;1,771538e-002
7,154725e+002;1,635553e-002
7,174010e+002;1,873583e-002
7,193295e+002;1,884665e-002
7,212580e+002;1,924148e-002
7,231865e+002;2,081694e-002
7,251150e+002;2,234500e-002
7,270435e+002;2,329354e-002
7,289720e+002;2,326893e-002
7,309005e+002;2,281891e-002
7,328290e+002;2,287049e-002
7,347574e+002;2,351591e-002
7,366860e+002;2,388750e-002
7,386144e+002;2,318074e-002
7,405430e+002;2,231469e-002
7,424714e+002;2,099102e-002
7,444000e+002;1,954489e-002
7,463284e+002;1,804493e-002
7,482570e+002;1,774492e-002
7,501854e+002;1,930293e-002
7,521140e+002;2,019676e-002
7,540424e+002;1,879412e-002
7,559709e+002;1,713549e-002
7,578994e+002;1,649624e-002
7,598279e+002;1,653297e-002
7,617564e+002;1,706866e-002
7,636849e+002;1,718533e-002
7,656134e+002;1,760198e-002
7,675419e+002;1,905075e-002
7,694704e+002;1,958242e-002
7,713989e+002;1,802234e-002
7,733274e+002;1,655537e-002
7,752559e+002;1,467779e-002
7,771844e+002;1,170530e-002
7,791129e+002;1,006998e-002
7,810414e+002;9,782268e-003
7,829699e+002;9,800737e-003
7,848984e+002;9,672346e-003
7,868269e+002;1,042137e-002
7,887554e+002;1,118669e-002
7,906839e+002;1,182528e-002
7,926124e+002;1,221091e-002
7,945409e+002;1,248550e-002
7,964694e+002;1,296447e-002
7,983979e+002;1,316692e-002
8,003264e+002;1,282654e-002
8,022549e+002;1,256012e-002
8,041833e+002;1,277556e-002
8,061119e+002;1,324111e-002
8,080403e+002;1,289285e-002
8,099689e+002;1,258973e-002
8,118973e+002;1,396409e-002
8,138259e+002;1,530952e-002
8,157543e+002;1,531518e-002
8,176829e+002;1,441013e-002
8,196113e+002;1,360930e-002
8,215399e+002;1,333421e-002
8,234683e+002;1,306939e-002
8,253969e+002;1,332857e-002
8,273253e+002;1,512322e-002
8,292538e+002;1,685787e-002
8,311823e+002;1,665187e-002
8,331108e+002;1,453462e-002
8,350393e+002;1,260893e-002
8,369678e+002;1,168018e-002
8,388963e+002;1,354712e-002
8,408248e+002;1,633926e-002
8,427533e+002;1,784544e-002
8,446818e+002;1,743991e-002
8,466103e+002;1,632020e-002
8,485388e+002;1,567508e-002
8,504673e+002;1,531930e-002
8,523958e+002;1,423185e-002
8,543243e+002;1,351516e-002
8,562528e+002;1,311726e-002
8,581813e+002;1,280678e-002
8,601098e+002;1,257690e-002
8,620383e+002;1,207813e-002
8,639668e+002;1,168941e-002
8,658953e+002;1,161916e-002
8,678238e+002;1,204757e-002
8,697523e+002;1,866325e-002
8,716808e+002;2,269391e-002
8,736093e+002;1,684826e-002
8,755378e+002;1,388878e-002
8,774662e+002;1,340186e-002
8,793948e+002;1,392594e-002
8,813232e+002;1,422538e-002
8,832518e+002;1,419272e-002
8,851802e+002;1,415992e-002
8,871088e+002;1,438266e-002
8,890372e+002;1,418258e-002
8,909658e+002;1,494050e-002
8,928942e+002;1,557972e-002
8,948228e+002;1,584673e-002
8,967512e+002;1,589522e-002
8,986797e+002;1,537436e-002
9,006082e+002;1,531577e-002
9,025367e+002;1,522341e-002
9,044652e+002;1,475600e-002
9,063937e+002;1,482128e-002
9,083222e+002;1,533420e-002
9,102507e+002;1,580738e-002
9,121792e+002;1,591650e-002
9,141077e+002;1,617013e-002
9,160362e+002;1,660980e-002
9,179647e+002;1,644796e-002
9,198932e+002;1,622815e-002
9,218217e+002;1,593729e-002
9,237502e+002;1,578560e-002
9,256787e+002;1,596761e-002
9,276072e+002;1,635626e-002
9,295357e+002;1,661424e-002
9,314642e+002;1,671457e-002
9,333927e+002;1,665255e-002
9,353212e+002;1,649758e-002
9,372497e+002;1,694279e-002
9,391782e+002;1,671302e-002
9,411067e+002;1,651971e-002
9,430352e+002;1,718829e-002
9,449637e+002;1,788739e-002
9,468922e+002;1,787555e-002
9,488207e+002;1,761885e-002
9,507491e+002;1,776377e-002
9,526777e+002;1,795742e-002
9,546061e+002;1,820813e-002
9,565347e+002;1,805961e-002
9,584631e+002;1,781948e-002
9,603917e+002;1,813264e-002
9,623201e+002;1,835207e-002
9,642487e+002;1,935825e-002
9,661771e+002;2,123326e-002
9,681057e+002;2,307859e-002
9,700341e+002;2,415311e-002
9,719626e+002;2,429024e-002
9,738911e+002;2,304495e-002
9,758196e+002;2,054624e-002
9,777481e+002;1,860809e-002
9,796766e+002;1,712759e-002
9,816051e+002;1,575323e-002
9,835336e+002;1,471943e-002
9,854621e+002;1,477345e-002
9,873906e+002;1,523690e-002
9,893191e+002;1,513375e-002
9,912476e+002;1,455672e-002
9,931761e+002;1,467463e-002
9,951046e+002;1,470143e-002
9,970331e+002;1,392700e-002
9,989616e+002;1,366127e-002
1,000890e+003;1,358452e-002
1,002819e+003;1,331244e-002
1,004747e+003;1,241584e-002
1,006676e+003;1,154161e-002
1,008604e+003;1,112345e-002
1,010533e+003;1,116170e-002
1,012461e+003;1,161055e-002
1,014390e+003;1,189580e-002
1,016318e+003;1,209339e-002
1,018247e+003;1,252803e-002
1,020175e+003;1,337053e-002
1,022104e+003;1,368781e-002
1,024032e+003;1,390859e-002
1,025961e+003;1,456192e-002
1,027889e+003;1,495634e-002
1,029818e+003;1,490724e-002
1,031746e+003;1,568098e-002
1,033675e+003;1,750821e-002
1,035603e+003;1,852205e-002
1,037531e+003;1,899048e-002
1,039460e+003;1,970920e-002
1,041389e+003;2,062910e-002
1,043317e+003;2,148100e-002
1,045245e+003;2,247214e-002
1,047174e+003;2,359087e-002
1,049103e+003;2,346065e-002
1,051031e+003;2,245413e-002
1,052959e+003;2,152368e-002
1,054888e+003;2,096668e-002
1,056817e+003;2,149949e-002
1,058745e+003;2,210396e-002
1,060673e+003;2,236625e-002
1,062602e+003;2,315939e-002
1,064531e+003;2,374784e-002
1,066459e+003;2,278368e-002
1,068387e+003;2,251003e-002
1,070316e+003;2,316816e-002
1,072245e+003;2,317337e-002
1,074173e+003;2,254500e-002
1,076101e+003;2,235306e-002
1,078030e+003;2,326614e-002
1,079958e+003;2,303457e-002
1,081887e+003;2,149994e-002
1,083815e+003;1,928533e-002
1,085744e+003;1,774578e-002
1,087672e+003;1,688670e-002
1,089601e+003;1,670334e-002
1,091529e+003;1,655885e-002
1,093458e+003;1,703820e-002
1,095386e+003;1,787645e-002
1,097315e+003;1,854090e-002
1,099243e+003;1,905944e-002
1,101172e+003;1,966483e-002
1,103100e+003;1,981809e-002
1,105029e+003;2,056524e-002
1,106957e+003;2,147452e-002
1,108886e+003;2,221585e-002
1,110814e+003;2,203528e-002
1,112743e+003;2,131378e-002
1,114671e+003;2,199411e-002
1,116600e+003;2,280086e-002
1,118528e+003;2,263055e-002
1,120457e+003;2,238310e-002
1,122385e+003;2,149548e-002
1,124314e+003;2,057601e-002
1,126242e+003;2,112715e-002
1,128171e+003;2,053543e-002
1,130099e+003;1,939089e-002
1,132028e+003;1,953591e-002
1,133956e+003;1,999156e-002
1,135885e+003;2,020419e-002
1,137813e+003;1,922721e-002
1,139742e+003;1,807516e-002
1,141670e+003;1,905359e-002
1,143599e+003;2,031365e-002
1,145527e+003;2,074273e-002
1,147456e+003;2,121020e-002
1,149384e+003;2,326589e-002
1,151313e+003;2,454957e-002
1,153241e+003;2,282879e-002
1,155170e+003;2,175225e-002
1,157098e+003;2,046784e-002
1,159027e+003;1,823318e-002
1,160955e+003;1,698530e-002
1,162884e+003;1,573375e-002
1,164812e+003;1,433026e-002
1,166741e+003;1,329990e-002
1,168669e+003;1,337025e-002
1,170598e+003;1,310780e-002
1,172526e+003;1,266777e-002
1,174455e+003;1,269104e-002
1,176383e+003;1,291995e-002
1,178312e+003;1,294395e-002
1,180240e+003;1,306676e-002
1,182169e+003;1,299277e-002
1,184097e+003;1,242593e-002
1,186026e+003;1,217963e-002
1,187954e+003;1,281616e-002
1,189883e+003;1,325173e-002
1,191811e+003;1,411042e-002
1,193740e+003;1,524215e-002
1,195668e+003;1,625019e-002
1,197597e+003;1,659861e-002
1,199525e+003;1,623282e-002
1,201454e+003;1,559497e-002
1,203382e+003;1,460222e-002
1,205311e+003;1,311996e-002
1,207239e+003;1,188337e-002
1,209168e+003;1,043980e-002
1,211096e+003;8,847231e-003
1,213025e+003;7,225205e-003
1,214953e+003;6,414507e-003
1,216882e+003;5,741512e-003
1,218810e+003;5,076934e-003
1,220739e+003;4,888773e-003
1,222667e+003;4,797269e-003
1,224596e+003;4,674435e-003
1,226524e+003;4,133999e-003
1,228453e+003;4,212549e-003
1,230381e+003;6,396887e-003
1,232310e+003;8,143854e-003
1,234238e+003;7,830798e-003
1,236167e+003;7,590186e-003
1,238095e+003;8,364574e-003
1,240024e+003;9,656084e-003
1,241952e+003;1,151796e-002
1,243881e+003;1,319479e-002
1,245809e+003;1,437738e-002
1,247738e+003;1,467515e-002
1,249666e+003;1,462127e-002
1,251595e+003;1,448778e-002
1,253523e+003;1,366216e-002
1,255452e+003;1,224625e-002
1,257380e+003;1,143849e-002
1,259309e+003;1,052256e-002
1,261237e+003;9,022399e-003
1,263166e+003;7,858497e-003
1,265094e+003;7,506303e-003
1,267023e+003;7,379599e-003
1,268951e+003;7,470974e-003
1,270880e+003;8,030026e-003
1,272808e+003;9,324535e-003
1,274737e+003;1,056570e-002
1,276665e+003;1,126227e-002
1,278594e+003;1,125313e-002
1,280522e+003;1,060071e-002
1,282451e+003;9,713309e-003
1,284379e+003;9,021791e-003
1,286308e+003;8,443690e-003
1,288236e+003;7,713410e-003
1,290165e+003;7,343068e-003
1,292093e+003;7,234705e-003
1,294022e+003;6,843599e-003
1,295950e+003;6,592464e-003
1,297879e+003;6,301165e-003
1,299807e+003;5,949156e-003
1,301736e+003;5,794530e-003
1,303664e+003;5,408543e-003
1,305593e+003;4,123094e-003
1,307521e+003;3,492416e-003
1,309450e+003;3,721779e-003
1,311378e+003;3,720943e-003
1,313307e+003;3,271421e-003
1,315235e+003;2,883198e-003
1,317164e+003;2,790382e-003
1,319092e+003;2,578910e-003
1,321021e+003;2,419848e-003
1,322949e+003;2,464698e-003
1,324878e+003;2,423813e-003
1,326806e+003;2,294253e-003
1,328735e+003;2,271703e-003
1,330663e+003;2,470529e-003
1,332592e+003;2,550712e-003
1,334520e+003;2,309342e-003
1,336449e+003;2,148248e-003
1,338377e+003;1,796095e-003
1,340306e+003;1,970472e-003
1,342234e+003;2,640010e-003
1,344163e+003;2,947911e-003
1,346091e+003;2,957619e-003
1,348020e+003;2,934601e-003
1,349948e+003;3,118413e-003
1,351877e+003;3,429993e-003
1,353805e+003;3,703632e-003
1,355734e+003;3,796845e-003
1,357662e+003;3,853938e-003
1,359591e+003;3,884861e-003
1,361519e+003;3,858685e-003
1,363448e+003;4,247949e-003
1,365376e+003;4,786515e-003
1,367305e+003;4,936124e-003
1,369233e+003;4,968666e-003
1,371161e+003;5,080119e-003
1,373090e+003;4,865820e-003
1,375019e+003;5,079750e-003
1,376947e+003;5,793120e-003
1,378875e+003;6,470903e-003
1,380804e+003;7,303136e-003
1,382733e+003;7,493695e-003
1,384661e+003;7,135902e-003
1,386589e+003;6,918196e-003
1,388518e+003;7,686428e-003
1,390447e+003;7,896388e-003
1,392375e+003;7,319816e-003
1,394303e+003;6,136904e-003
1,396232e+003;5,357249e-003
1,398161e+003;4,827992e-003
1,400089e+003;4,174745e-003
1,402017e+003;4,043725e-003
1,403946e+003;3,663566e-003
1,405875e+003;3,560828e-003
1,407803e+003;3,677400e-003
1,409731e+003;3,439344e-003
1,411660e+003;3,234365e-003
1,413589e+003;3,642849e-003
1,415517e+003;3,605295e-003
1,417445e+003;3,746743e-003
1,419374e+003;5,898504e-003
1,421302e+003;8,059730e-003
1,423231e+003;8,899176e-003
1,425159e+003;1,025361e-002
1,427088e+003;1,135195e-002
1,429016e+003;1,182194e-002
1,430945e+003;1,180607e-002
1,432873e+003;1,157747e-002
1,434802e+003;1,157570e-002
1,436730e+003;1,275481e-002
1,438659e+003;1,368757e-002
1,440587e+003;1,351529e-002
1,442516e+003;1,264024e-002
1,444444e+003;1,138467e-002
1,446373e+003;1,010460e-002
1,448301e+003;9,422145e-003
1,450230e+003;9,564145e-003
1,452158e+003;9,588805e-003
1,454087e+003;8,867893e-003
1,456015e+003;6,467473e-003
1,457944e+003;5,380261e-003
1,459872e+003;7,316379e-003
1,461801e+003;7,961076e-003
1,463729e+003;7,264489e-003
1,465658e+003;6,739466e-003
1,467586e+003;7,389743e-003
1,469515e+003;7,298486e-003
1,471443e+003;6,350284e-003
1,473372e+003;5,708778e-003
1,475300e+003;5,923930e-003
1,477229e+003;5,849906e-003
1,479157e+003;5,817902e-003
1,481086e+003;5,823309e-003
1,483014e+003;5,746448e-003
1,484943e+003;4,855935e-003
1,486871e+003;3,697550e-003
1,488800e+003;2,943575e-003
1,490728e+003;3,699188e-003
1,492657e+003;4,429739e-003
1,494585e+003;3,783274e-003
1,496514e+003;2,746165e-003
1,498442e+003;2,449536e-003
1,500371e+003;2,230003e-003
1,502299e+003;1,726696e-003
1,504228e+003;7,587693e-004
1,506156e+003;-2,006297e-003
1,508085e+003;-2,431086e-003
1,510013e+003;-1,228164e-003
1,511942e+003;-8,664186e-004
1,513870e+003;-6,089410e-004
1,515799e+003;-1,209529e-003
1,517727e+003;-1,723027e-003
1,519656e+003;-1,635230e-003
1,521584e+003;-1,997886e-003
1,523513e+003;-1,396076e-003
1,525441e+003;-1,261203e-003
1,527370e+003;-8,073552e-004
1,529298e+003;-2,648921e-004
1,531227e+003;-2,989318e-004
1,533155e+003;-1,083026e-003
1,535084e+003;-6,405055e-004
1,537012e+003;-4,160967e-004
1,538941e+003;-1,476623e-003
1,540869e+003;-2,627781e-003
1,542798e+003;-1,515521e-003
1,544726e+003;-9,858769e-004
1,546655e+003;-7,838806e-005
1,548583e+003;-7,169614e-005
1,550512e+003;-9,985451e-005
1,552440e+003;1,082293e-004
1,554369e+003;-2,792633e-004
1,556297e+003;-5,322041e-004
1,558226e+003;-2,147829e-003
1,560154e+003;-2,113407e-003
1,562083e+003;-6,048381e-004
1,564011e+003;-1,191668e-004
1,565940e+003;1,626192e-004
1,567868e+003;1,674917e-004
1,569797e+003;-1,572588e-004
1,571725e+003;4,677399e-004
1,573654e+003;6,794145e-004
1,575582e+003;-4,272851e-004
1,577511e+003;-6,669397e-004
1,579439e+003;4,403737e-005
1,581368e+003;5,580042e-004
1,583296e+003;9,703201e-004
1,585225e+003;9,879540e-004
1,587153e+003;9,493330e-004
1,589082e+003;8,945125e-004
1,591010e+003;9,654385e-004
1,592939e+003;1,168053e-003
1,594867e+003;1,307979e-003
1,596796e+003;1,664527e-003
1,598724e+003;1,746823e-003
1,600653e+003;1,673108e-003
1,602581e+003;1,715020e-003
1,604510e+003;1,970205e-003
1,606438e+003;1,892992e-003
1,608367e+003;1,944610e-003
1,610295e+003;2,762004e-003
1,612224e+003;3,291218e-003
1,614152e+003;3,047101e-003
1,616081e+003;2,660546e-003
1,618009e+003;2,866621e-003
1,619938e+003;3,229192e-003
1,621866e+003;2,967394e-003
1,623795e+003;2,972365e-003
1,625723e+003;3,880415e-003
1,627652e+003;4,164909e-003
1,629580e+003;4,418894e-003
1,631509e+003;4,730270e-003
1,633437e+003;4,447648e-003
1,635366e+003;3,264176e-003
1,637294e+003;3,809112e-003
1,639223e+003;4,671588e-003
1,641151e+003;4,885221e-003
1,643080e+003;5,095741e-003
1,645008e+003;5,056586e-003
1,646937e+003;4,880597e-003
1,648865e+003;5,055915e-003
1,650794e+003;4,770736e-003
1,652722e+003;2,161701e-003
1,654651e+003;4,513800e-003
1,656579e+003;6,178778e-003
1,658508e+003;6,634820e-003
1,660436e+003;6,485398e-003
1,662365e+003;6,609218e-003
1,664293e+003;7,370432e-003
1,666222e+003;7,851615e-003
1,668150e+003;7,417246e-003
1,670079e+003;7,329285e-003
1,672007e+003;8,460650e-003
1,673936e+003;9,316749e-003
1,675864e+003;1,019319e-002
1,677793e+003;1,169737e-002
1,679721e+003;1,256159e-002
1,681650e+003;1,312874e-002
1,683578e+003;1,352015e-002
1,685507e+003;1,666943e-002
1,687435e+003;1,745984e-002
1,689364e+003;1,930774e-002
1,691292e+003;2,193605e-002
1,693221e+003;2,411314e-002
1,695149e+003;2,556420e-002
1,697078e+003;2,976076e-002
1,699006e+003;3,152518e-002
1,700935e+003;3,790849e-002
1,702863e+003;4,188509e-002
1,704792e+003;4,466617e-002
1,706720e+003;4,542624e-002
1,708649e+003;4,461297e-002
1,710577e+003;4,051164e-002
1,712505e+003;3,576250e-002
1,714434e+003;2,815308e-002
1,716363e+003;2,133870e-002
1,718291e+003;1,495027e-002
1,720219e+003;9,737570e-003
1,722148e+003;7,433155e-003
1,724077e+003;5,777473e-003
1,726005e+003;5,833182e-003
1,727933e+003;4,518454e-003
1,729862e+003;2,362043e-003
1,731791e+003;9,859614e-004
1,733719e+003;-1,332130e-003
1,735647e+003;4,131792e-004
1,737576e+003;1,583776e-003
1,739505e+003;1,517071e-003
1,741433e+003;2,127104e-003
1,743361e+003;1,720742e-003
1,745290e+003;1,729291e-003
1,747219e+003;1,292359e-003
1,749147e+003;9,698552e-004
1,751075e+003;1,036509e-003
1,753004e+003;1,268100e-003
1,754932e+003;9,505285e-004
1,756861e+003;3,107759e-004
1,758789e+003;7,142279e-004
1,760718e+003;7,904688e-004
1,762646e+003;9,776260e-004
1,764575e+003;1,693432e-003
1,766503e+003;2,115717e-003
1,768432e+003;2,680682e-003
1,770360e+003;3,160598e-003
1,772289e+003;4,441455e-003
1,774217e+003;7,254078e-003
1,776146e+003;9,144439e-003
1,778074e+003;9,874116e-003
1,780003e+003;9,110196e-003
1,781931e+003;7,812412e-003
1,783860e+003;6,245597e-003
1,785788e+003;4,477342e-003
1,787717e+003;3,514395e-003
1,789645e+003;3,073496e-003
1,791574e+003;3,207227e-003
1,793502e+003;4,229412e-003
1,795431e+003;5,885170e-003
1,797359e+003;7,765826e-003
1,799288e+003;8,795563e-003
1,801216e+003;9,461831e-003
1,803145e+003;9,472667e-003
1,805073e+003;8,207769e-003
1,807002e+003;6,293030e-003
1,808930e+003;4,699052e-003
1,810859e+003;2,891104e-003
1,812787e+003;1,188220e-003
1,814716e+003;2,331937e-004
1,816644e+003;-7,182487e-004
1,818573e+003;-7,962427e-004
1,820501e+003;-7,066377e-004
1,822430e+003;-7,909178e-004
1,824358e+003;-1,187589e-003
1,826287e+003;-1,086893e-003
1,828215e+003;-1,652791e-003
1,830144e+003;-2,159534e-003
1,832072e+003;-1,644011e-003
1,834001e+003;-1,570626e-003
1,835929e+003;-1,843008e-003
1,837858e+003;-1,636286e-003
1,839786e+003;-1,356441e-003
1,841715e+003;-1,705469e-003
1,843643e+003;-2,205063e-003
1,845572e+003;-2,224875e-003
1,847500e+003;-1,956195e-003
1,849429e+003;-1,430391e-003
1,851357e+003;-1,137591e-003
1,853286e+003;-1,228825e-003
1,855214e+003;-1,017877e-003
1,857143e+003;-5,516295e-004
1,859071e+003;-6,272711e-004
1,861000e+003;-7,828147e-004
1,862928e+003;-4,882868e-004
1,864857e+003;-3,722339e-004
1,866785e+003;-9,228290e-004
1,868714e+003;-1,421507e-003
1,870642e+003;-1,082795e-003
1,872571e+003;-2,956207e-004
1,874499e+003;-4,302311e-004
1,876428e+003;-9,060985e-004
1,878356e+003;-1,105368e-003
1,880285e+003;-8,873832e-004
1,882213e+003;-4,720691e-004
1,884142e+003;-4,395656e-004
1,886070e+003;-3,439939e-004
1,887999e+003;-3,504167e-004
1,889927e+003;-6,367999e-004
1,891856e+003;-7,034289e-004
1,893784e+003;-1,140962e-003
1,895713e+003;-1,009976e-003
1,897641e+003;-7,171240e-004
1,899570e+003;-7,808633e-004
1,901498e+003;-4,635628e-004
1,903427e+003;-4,133161e-004
1,905355e+003;-9,491800e-004
1,907284e+003;-1,812026e-003
1,909212e+003;-2,221743e-003
1,911141e+003;-1,540185e-003
1,913069e+003;-9,772484e-004
1,914998e+003;-1,075061e-003
1,916926e+003;-1,233054e-003
1,918855e+003;-1,220994e-003
1,920783e+003;-1,517469e-003
1,922712e+003;-1,411269e-003
1,924640e+003;-1,206522e-003
1,926569e+003;-1,589014e-003
1,928497e+003;-2,269705e-003
1,930426e+003;-2,952193e-003
1,932354e+003;-3,189570e-003
1,934283e+003;-2,569220e-003
1,936211e+003;-1,674345e-003
1,938140e+003;-1,262954e-003
1,940068e+003;-1,007497e-003
1,941997e+003;-1,462787e-003
1,943925e+003;-1,351586e-003
1,945854e+003;-1,032851e-003
1,947782e+003;-1,699561e-003
1,949711e+003;-2,387822e-003
1,951639e+003;-1,739660e-003
1,953568e+003;-1,565806e-003
1,955496e+003;-1,750517e-003
1,957425e+003;-1,131444e-003
1,959353e+003;-1,801599e-003
1,961282e+003;-1,960351e-003
1,963210e+003;-1,851191e-003
1,965139e+003;-2,623005e-003
1,967067e+003;-2,208359e-003
1,968996e+003;-9,449481e-004
1,970924e+003;-2,675743e-004
1,972853e+003;-1,194296e-003
1,974781e+003;-1,743851e-003
1,976710e+003;4,503149e-005
1,978638e+003;1,856087e-003
1,980567e+003;1,760496e-003
1,982495e+003;5,313642e-004
1,984424e+003;-6,596944e-004
1,986352e+003;-1,749461e-003
1,988281e+003;-2,372532e-003
1,990209e+003;-1,648599e-003
1,992138e+003;-5,892865e-004
1,994066e+003;-8,337132e-004
1,995995e+003;-1,205234e-003
1,997923e+003;-9,084130e-004
1,999852e+003;-1,216534e-003
2,001780e+003;-1,476161e-003
2,003709e+003;-1,879762e-003
2,005637e+003;-2,825340e-003
2,007566e+003;-2,363667e-003
2,009494e+003;-1,790314e-003
2,011423e+003;-1,877288e-003
2,013351e+003;-1,213296e-003
2,015280e+003;-4,406248e-004
2,017208e+003;-1,964404e-004
2,019137e+003;-3,637919e-004
2,021065e+003;-8,146972e-004
2,022994e+003;-8,601026e-004
2,024922e+003;-1,361792e-003
2,026851e+003;-1,562867e-003
2,028779e+003;-2,279791e-003
2,030708e+003;-1,803711e-003
2,032636e+003;-1,158443e-003
2,034565e+003;-1,798927e-003
2,036493e+003;-1,696359e-003
2,038422e+003;-4,397973e-004
2,040350e+003;4,222003e-004
2,042279e+003;1,328695e-005
2,044207e+003;-5,097992e-004
2,046135e+003;-1,271049e-003
2,048064e+003;-7,601582e-004
2,049992e+003;8,217390e-004
2,051921e+003;-2,913824e-004
2,053850e+003;-6,111579e-004
2,055778e+003;1,175092e-004
2,057707e+003;3,006298e-004
2,059635e+003;9,295093e-005
2,061563e+003;-1,318535e-004
2,063492e+003;-7,854606e-004
2,065420e+003;-8,550101e-004
2,067349e+003;-3,361141e-004
2,069278e+003;-6,155585e-004
2,071206e+003;-4,318200e-004
2,073135e+003;3,967957e-004
2,075063e+003;4,836285e-004
2,076991e+003;6,897023e-004
2,078920e+003;5,383309e-004
2,080848e+003;-1,318715e-005
2,082777e+003;2,567321e-004
2,084706e+003;4,741749e-004
2,086634e+003;2,776194e-004
2,088563e+003;-6,448727e-004
2,090491e+003;-1,469788e-003
2,092419e+003;-1,571319e-003
2,094348e+003;-1,600371e-003
2,096276e+003;-1,061113e-003
2,098205e+003;-4,920267e-004
2,100134e+003;9,608978e-006
2,102062e+003;-8,411918e-005
2,103990e+003;-9,127468e-005
2,105919e+003;-3,777294e-004
2,107847e+003;-5,002015e-004
2,109776e+003;-4,050735e-004
2,111704e+003;-7,500037e-004
2,113633e+003;-8,450231e-004
2,115562e+003;-9,441215e-004
2,117490e+003;-1,170901e-003
2,119418e+003;-1,269364e-003
2,121347e+003;-1,540417e-003
2,123275e+003;-1,428839e-003
2,125204e+003;-1,324632e-003
2,127132e+003;-1,532790e-003
2,129061e+003;-2,295710e-003
2,130990e+003;-3,076968e-003
2,132918e+003;-3,132368e-003
2,134846e+003;-2,197678e-003
2,136775e+003;-2,973353e-003
2,138703e+003;-3,640116e-003
2,140632e+003;-3,158487e-003
2,142560e+003;-3,062261e-003
2,144489e+003;-2,398630e-003
2,146417e+003;-1,563528e-003
2,148346e+003;-1,995446e-003
2,150274e+003;-2,932776e-003
2,152203e+003;-3,690253e-003
2,154131e+003;-3,926144e-003
2,156060e+003;-4,163975e-003
2,157988e+003;-4,029335e-003
2,159917e+003;-1,992114e-003
2,161845e+003;-1,174668e-003
2,163774e+003;-1,782577e-004
2,165702e+003;1,418496e-003
2,167631e+003;1,799555e-003
2,169559e+003;8,067343e-004
2,171488e+003;-8,878131e-004
2,173416e+003;-2,210271e-003
2,175345e+003;-2,388712e-003
2,177273e+003;-1,842217e-003
2,179202e+003;-1,441619e-003
2,181130e+003;-1,018802e-003
2,183059e+003;-1,295462e-003
2,184987e+003;-1,562240e-003
2,186916e+003;-1,472364e-003
2,188844e+003;-1,557354e-003
2,190773e+003;-1,295793e-003
2,192701e+003;-8,955506e-004
2,194630e+003;-9,261023e-004
2,196558e+003;-1,297445e-003
2,198487e+003;-9,356906e-004
2,200415e+003;-1,678246e-004
2,202344e+003;-1,058172e-004
2,204272e+003;-3,661755e-004
2,206201e+003;-1,144531e-003
2,208129e+003;-7,725285e-004
2,210058e+003;-5,123806e-004
2,211986e+003;-1,611925e-003
2,213915e+003;-1,705436e-003
2,215843e+003;-1,060848e-003
2,217772e+003;-1,102361e-003
2,219700e+003;-8,517362e-004
2,221629e+003;-1,610373e-003
2,223557e+003;-1,213329e-003
2,225486e+003;-6,016947e-004
2,227414e+003;-7,637304e-004
2,229343e+003;-7,152716e-004
2,231271e+003;-2,713493e-004
2,233200e+003;-1,385776e-004
2,235128e+003;-7,570160e-004
2,237057e+003;-5,640388e-004
2,238985e+003;-6,054006e-004
2,240914e+003;-2,238621e-004
2,242842e+003;5,645069e-004
2,244771e+003;-4,766697e-004
2,246699e+003;-8,724039e-004
2,248628e+003;-9,526845e-004
2,250556e+003;-8,611939e-004
2,252485e+003;-7,557921e-004
2,254413e+003;-6,355096e-004
2,256342e+003;5,702742e-005
2,258270e+003;4,234737e-005
2,260199e+003;-4,244384e-004
2,262127e+003;-8,602349e-004
2,264056e+003;-7,715031e-004
2,265984e+003;2,428410e-004
2,267913e+003;3,875429e-004
2,269841e+003;-6,784194e-004
2,271770e+003;-4,371492e-004
2,273698e+003;5,447338e-004
2,275627e+003;8,786753e-004
2,277555e+003;5,040955e-004
2,279484e+003;5,460833e-005
2,281412e+003;3,413484e-004
2,283341e+003;8,874405e-004
2,285269e+003;9,007214e-004
2,287198e+003;4,856852e-004
2,289126e+003;2,380007e-004
2,291055e+003;3,989182e-004
2,292983e+003;3,684411e-004
2,294912e+003;7,469055e-005
2,296840e+003;2,123085e-004
2,298769e+003;-8,531177e-005
2,300697e+003;-3,715056e-004
2,302626e+003;-9,359358e-005
2,304554e+003;2,741050e-004
2,306483e+003;1,435935e-004
2,308411e+003;-6,383549e-004
2,310340e+003;-6,746811e-004
2,312268e+003;-4,072583e-004
2,314197e+003;-3,753789e-004
2,316125e+003;-4,156994e-004
2,318054e+003;-4,369506e-004
2,319982e+003;3,723542e-004
2,321911e+003;1,119151e-003
2,323839e+003;5,011432e-004
2,325768e+003;-7,891649e-004
2,327696e+003;-1,390858e-003
2,329625e+003;-2,018796e-003
2,331553e+003;-2,232358e-003
2,333482e+003;-1,961308e-003
2,335410e+003;-1,591754e-003
2,337339e+003;-1,735040e-003
2,339267e+003;-2,692261e-003
2,341196e+003;-2,537334e-003
2,343124e+003;-2,941168e-003
2,345053e+003;-3,323846e-003
2,346981e+003;-3,483752e-003
2,348910e+003;-2,723905e-003
2,350838e+003;-1,879531e-003
2,352767e+003;-1,650249e-003
2,354695e+003;-2,360734e-003
2,356624e+003;-2,691405e-003
2,358552e+003;-3,059168e-003
2,360481e+003;-2,554463e-003
2,362409e+003;-2,284372e-003
2,364338e+003;-3,088318e-003
2,366266e+003;-3,556222e-003
2,368195e+003;-2,455369e-003
2,370123e+003;-2,101305e-003
2,372052e+003;-1,556000e-003
2,373980e+003;-2,273923e-003
2,375909e+003;-2,562039e-003
2,377837e+003;-1,821463e-003
2,379766e+003;-1,769591e-003
2,381694e+003;-1,624667e-003
2,383623e+003;-1,197898e-003
2,385551e+003;-8,086450e-004
2,387479e+003;-4,998374e-004
2,389408e+003;-3,012496e-004
2,391337e+003;-5,379292e-004
2,393265e+003;-6,496700e-004
2,395194e+003;-2,494277e-004
2,397122e+003;-2,810183e-004
2,399051e+003;-1,000522e-003
2,400979e+003;-1,395944e-003
2,402907e+003;-1,378869e-003
2,404836e+003;-1,072582e-003
2,406765e+003;-1,221655e-003
2,408693e+003;-1,270751e-003
2,410622e+003;-7,854606e-004
2,412550e+003;-3,475695e-004
2,414479e+003;-4,073576e-004
2,416407e+003;-7,598274e-004
2,418335e+003;-7,287347e-004
2,420264e+003;-6,781548e-004
2,422193e+003;-1,040090e-003
2,424121e+003;-1,235598e-003
2,426050e+003;-6,545665e-004
2,427978e+003;-5,057285e-004
2,429906e+003;-5,567587e-004
2,431835e+003;-3,409479e-004
2,433763e+003;-4,584987e-004
2,435692e+003;-8,092734e-004
2,437621e+003;-9,665370e-004
2,439549e+003;-1,235070e-003
2,441478e+003;-1,055163e-003
2,443406e+003;-7,488129e-004
2,445334e+003;-1,027199e-003
2,447263e+003;-1,204474e-003
2,449191e+003;-1,069442e-003
2,451120e+003;-5,043385e-004
2,453049e+003;-1,099580e-004
2,454977e+003;-4,349315e-004
2,456906e+003;-6,821246e-004
2,458834e+003;-3,939507e-004
2,460762e+003;-5,856136e-004
2,462691e+003;-1,070202e-003
2,464619e+003;-1,261699e-003
2,466548e+003;-1,240125e-003
2,468477e+003;-1,218615e-003
2,470405e+003;-1,540846e-003
2,472333e+003;-1,219540e-003
2,474262e+003;-7,754721e-004
2,476190e+003;-9,044452e-004
2,478119e+003;-9,263007e-004
2,480047e+003;-1,355384e-003
2,481976e+003;-1,125760e-003
2,483905e+003;-8,034857e-004
2,485833e+003;-1,176618e-003
2,487761e+003;-1,164028e-003
2,489690e+003;-1,124206e-003
2,491618e+003;-1,036256e-003
2,493547e+003;-7,315464e-004
2,495475e+003;-3,008523e-004
2,497404e+003;-4,612459e-004
2,499333e+003;-9,073219e-004
2,501261e+003;-8,761405e-004
2,503189e+003;-7,588682e-004
2,505118e+003;-7,124267e-004
2,507046e+003;-9,198533e-004
2,508975e+003;-1,295429e-003
2,510903e+003;-1,264177e-003
2,512832e+003;-9,550318e-004
2,514760e+003;-1,006175e-003
2,516689e+003;-1,414373e-003
2,518617e+003;-1,265696e-003
2,520546e+003;-1,048155e-003
2,522474e+003;-1,507993e-003
2,524403e+003;-1,681408e-003
2,526331e+003;-1,205167e-003
2,528260e+003;-7,156685e-004
2,530188e+003;-4,697853e-004
2,532117e+003;-8,805715e-004
2,534045e+003;-1,402418e-003
2,535974e+003;-1,366350e-003
2,537902e+003;-8,280912e-004
2,539831e+003;-8,343746e-004
2,541759e+003;-1,066004e-003
2,543688e+003;-9,475930e-004
2,545616e+003;-1,230312e-003
2,547545e+003;-1,213395e-003
2,549473e+003;-8,186658e-004
2,551402e+003;-7,342257e-004
2,553330e+003;-7,543367e-004
2,555259e+003;-8,443948e-004
2,557187e+003;-6,500339e-004
2,559116e+003;-7,329026e-004
2,561044e+003;-9,745045e-004
2,562973e+003;-1,070830e-003
2,564901e+003;-1,201401e-003
2,566830e+003;-9,184976e-004
2,568758e+003;-5,134728e-004
2,570687e+003;-3,685261e-004
2,572615e+003;-5,590751e-004
2,574544e+003;-7,488460e-004
2,576472e+003;-1,072780e-003
2,578401e+003;-1,158708e-003
2,580329e+003;-9,824388e-004
2,582258e+003;-7,175871e-004
2,584186e+003;-9,121493e-004
2,586115e+003;-1,217624e-003
2,588043e+003;-1,678966e-003
2,589972e+003;-1,790314e-003
2,591900e+003;-1,535959e-003
2,593829e+003;-9,977779e-004
2,595757e+003;-7,992854e-004
2,597686e+003;-6,730931e-004
2,599614e+003;-4,455898e-004
2,601543e+003;-7,286355e-004
2,603471e+003;-9,170098e-004
2,605400e+003;-9,433941e-004
2,607328e+003;-5,820399e-004
2,609257e+003;-3,266893e-005
2,611185e+003;1,040865e-004
2,613114e+003;-4,539126e-005
2,615042e+003;-2,604217e-004
2,616971e+003;-3,592894e-004
2,618899e+003;-2,026336e-004
2,620828e+003;-5,036104e-004
2,622756e+003;-4,317207e-004
2,624685e+003;-4,816343e-004
2,626613e+003;-5,977242e-004
2,628542e+003;-2,186296e-004
2,630470e+003;7,969468e-005
2,632399e+003;-2,925637e-005
2,634327e+003;-2,819123e-004
2,636256e+003;-5,122813e-004
2,638184e+003;-4,761401e-004
2,640113e+003;4,337462e-005
2,642041e+003;1,400802e-004
2,643970e+003;-1,068441e-004
2,645898e+003;-3,131054e-005
2,647827e+003;1,298054e-004
2,649755e+003;-2,490965e-004
2,651684e+003;-1,130386e-004
2,653612e+003;5,546993e-005
2,655541e+003;-1,462953e-004
2,657469e+003;-4,270203e-004
2,659398e+003;-4,931189e-004
2,661326e+003;-6,661457e-004
2,663255e+003;-8,263053e-004
2,665183e+003;-8,691633e-004
2,667112e+003;-7,505660e-004
2,669040e+003;-8,024935e-004
2,670969e+003;-8,698908e-004
2,672897e+003;-7,476552e-004
2,674826e+003;-4,723670e-004
2,676754e+003;-6,531769e-004
2,678683e+003;-9,828025e-004
2,680611e+003;-1,041842e-003
2,682540e+003;-9,954639e-004
2,684468e+003;-9,182331e-004
2,686397e+003;-8,790835e-004
2,688325e+003;-9,002459e-004
2,690254e+003;-7,446121e-004
2,692182e+003;-8,770995e-004
2,694111e+003;-1,042107e-003
2,696039e+003;-8,685350e-004
2,697968e+003;-5,301192e-004
2,699896e+003;-6,101652e-004
2,701825e+003;-1,031066e-003
2,703753e+003;-1,097899e-003
2,705682e+003;-9,533788e-004
2,707610e+003;-1,083158e-003
2,709539e+003;-1,240125e-003
2,711467e+003;-7,552629e-004
2,713396e+003;-4,268548e-004
2,715324e+003;-8,068261e-004
2,717253e+003;-1,212139e-003
2,719181e+003;-1,007398e-003
2,721110e+003;-6,655833e-004
2,723038e+003;-6,394137e-004
2,724967e+003;-8,714781e-004
2,726895e+003;-1,027959e-003
2,728823e+003;-9,725209e-004
2,730752e+003;-8,714449e-004
2,732681e+003;-8,433696e-004
2,734609e+003;-6,800074e-004
2,736538e+003;-5,263134e-004
2,738466e+003;-7,621427e-004
2,740395e+003;-1,143209e-003
2,742323e+003;-1,238076e-003
2,744251e+003;-1,143671e-003
2,746180e+003;-1,203284e-003
2,748109e+003;-1,084613e-003
2,750037e+003;-1,058931e-003
2,751966e+003;-1,082299e-003
2,753894e+003;-1,050535e-003
2,755823e+003;-8,962450e-004
2,757751e+003;-7,935968e-004
2,759679e+003;-9,557923e-004
2,761608e+003;-1,103518e-003
2,763537e+003;-9,991995e-004
2,765465e+003;-1,087025e-003
2,767394e+003;-1,255719e-003
2,769322e+003;-9,128106e-004
2,771250e+003;-5,162196e-004
2,773179e+003;-3,010509e-004
2,775107e+003;-8,583500e-004
2,777036e+003;-1,247757e-003
2,778965e+003;-1,167068e-003
2,780893e+003;-1,158708e-003
2,782822e+003;-1,188448e-003
2,784750e+003;-1,270784e-003
2,786678e+003;-1,159401e-003
2,788607e+003;-6,653186e-004
2,790535e+003;-4,701825e-004
2,792464e+003;-5,791612e-004
2,794393e+003;-8,473049e-004
2,796321e+003;-9,514943e-004
2,798250e+003;-9,140670e-004
2,800178e+003;-9,096033e-004
2,802106e+003;-8,397981e-004
2,804035e+003;-6,664104e-004
2,805963e+003;-7,988224e-004
2,807892e+003;-1,031066e-003
2,809821e+003;-9,366163e-004
2,811749e+003;-9,958275e-004
2,813677e+003;-1,105335e-003
2,815606e+003;-6,571139e-004
2,817534e+003;-3,579651e-004
2,819463e+003;-3,301877e-004
2,821391e+003;-3,348891e-004
2,823320e+003;-3,248903e-004
2,825249e+003;-5,336602e-004
2,827177e+003;-3,174125e-005
2,829105e+003;4,996901e-005
2,831034e+003;-4,163946e-004
2,832962e+003;-6,207200e-004
2,834891e+003;-2,210472e-004
2,836819e+003;-9,111765e-006
2,838748e+003;-1,146949e-004
2,840677e+003;-1,675596e-004
2,842605e+003;-2,335887e-005
2,844533e+003;3,155507e-004
2,846462e+003;5,195542e-004
2,848390e+003;3,578957e-004
2,850319e+003;3,760685e-004
2,852247e+003;1,278831e-004
2,854176e+003;-2,620443e-004
2,856104e+003;-4,805752e-004
2,858033e+003;-3,464769e-004
2,859961e+003;-4,416543e-005
2,861890e+003;2,614400e-004
2,863818e+003;5,762392e-005
2,865747e+003;-2,513815e-004
2,867675e+003;1,554927e-004
2,869604e+003;3,889026e-004
2,871532e+003;4,546713e-004
2,873461e+003;4,987548e-004
2,875389e+003;3,994820e-004
2,877318e+003;3,111407e-004
2,879246e+003;7,186088e-004
2,881175e+003;6,649789e-004
2,883103e+003;3,982881e-004
2,885032e+003;6,436747e-004
2,886960e+003;7,092165e-004
2,888889e+003;5,544875e-004
2,890817e+003;9,464109e-004
2,892746e+003;1,265142e-003
2,894674e+003;9,997103e-004
2,896603e+003;1,065073e-003
2,898531e+003;1,495492e-003
2,900460e+003;1,433921e-003
2,902388e+003;1,059095e-003
2,904317e+003;7,761290e-004
2,906245e+003;1,273018e-003
2,908174e+003;2,113953e-003
2,910102e+003;1,892759e-003
2,912031e+003;1,750216e-003
2,913959e+003;1,860446e-003
2,915888e+003;1,718713e-003
2,917816e+003;1,930831e-003
2,919745e+003;2,237530e-003
2,921673e+003;2,277199e-003
2,923602e+003;2,219013e-003
2,925530e+003;2,097671e-003
2,927459e+003;2,450469e-003
2,929387e+003;2,748766e-003
2,931316e+003;2,855215e-003
2,933244e+003;2,794984e-003
2,935173e+003;2,882198e-003
2,937101e+003;3,115576e-003
2,939030e+003;3,100292e-003
2,940958e+003;2,817228e-003
2,942887e+003;2,543313e-003
2,944815e+003;1,865538e-003
2,946744e+003;1,390374e-003
2,948672e+003;1,167488e-003
2,950601e+003;1,568479e-003
2,952529e+003;2,574477e-003
2,954458e+003;3,379233e-003
2,956386e+003;3,876236e-003
2,958315e+003;3,754531e-003
2,960243e+003;3,846350e-003
2,962172e+003;4,384853e-003
2,964100e+003;4,680999e-003
2,966029e+003;3,772579e-003
2,967957e+003;3,143877e-003
2,969886e+003;2,672314e-003
2,971814e+003;1,934659e-003
2,973743e+003;1,614438e-003
2,975671e+003;1,547330e-003
2,977600e+003;1,510155e-003
2,979528e+003;1,845306e-003
2,981457e+003;1,703976e-003
2,983385e+003;1,547197e-003
2,985314e+003;1,494295e-003
2,987242e+003;1,412845e-003
2,989171e+003;1,573467e-003
2,991099e+003;1,410352e-003
2,993028e+003;1,388944e-003
2,994956e+003;1,345435e-003
2,996885e+003;1,281393e-003
2,998813e+003;2,019303e-003
3,000742e+003;2,501021e-003
3,002670e+003;3,060381e-003
3,004599e+003;3,219277e-003
3,006527e+003;2,222310e-003
3,008456e+003;1,730189e-003
3,010384e+003;1,810235e-003
3,012313e+003;1,933228e-003
3,014241e+003;2,204160e-003
3,016170e+003;2,154509e-003
3,018098e+003;2,038544e-003
3,020027e+003;1,823012e-003
3,021955e+003;1,265242e-003
3,023884e+003;1,060025e-003
3,025812e+003;1,354941e-003
3,027741e+003;7,641464e-004
3,029669e+003;3,232434e-004
3,031598e+003;1,950376e-004
3,033526e+003;3,615074e-005
3,035455e+003;-1,674603e-004
3,037383e+003;-2,007128e-004
3,039312e+003;1,914244e-004
3,041240e+003;4,543728e-004
3,043169e+003;5,139479e-004
3,045097e+003;5,884614e-004
3,047026e+003;7,091501e-004
3,048954e+003;6,593375e-004
3,050883e+003;5,831196e-004
3,052811e+003;5,247625e-004
3,054740e+003;8,609077e-005
3,056668e+003;-2,607860e-004
3,058597e+003;-6,374616e-004
3,060525e+003;-9,658758e-004
3,062454e+003;-1,055593e-003
3,064382e+003;-1,050172e-003
3,066311e+003;-8,455853e-004
3,068239e+003;-9,414766e-004
3,070167e+003;-1,593933e-003
3,072096e+003;-1,331536e-003
3,074025e+003;-5,518611e-004
3,075953e+003;-7,530798e-004
3,077882e+003;-1,230642e-003
3,079810e+003;-8,125806e-004
3,081739e+003;-4,894452e-004
3,083667e+003;-3,685261e-004
3,085595e+003;-2,751242e-004
3,087524e+003;-4,225185e-004
3,089453e+003;-5,319393e-004
3,091381e+003;-3,817682e-004
3,093310e+003;-4,557183e-004
3,095238e+003;-5,938859e-004
3,097167e+003;-7,232106e-004
3,099095e+003;-9,219032e-004
3,101023e+003;-8,243541e-004
3,102952e+003;-6,294879e-004
3,104881e+003;-9,075533e-004
3,106809e+003;-1,644539e-003
3,108738e+003;-1,482765e-003
3,110666e+003;-7,255592e-004
3,112594e+003;-6,714390e-004
3,114523e+003;-1,395482e-003
3,116451e+003;-1,587925e-003
3,118380e+003;-1,410939e-003
3,120309e+003;-7,019403e-004
3,122237e+003;-4,797808e-004
3,124166e+003;-5,798229e-004
3,126094e+003;-7,796726e-004
3,128022e+003;-8,274628e-004
3,129951e+003;-1,269562e-003
3,131879e+003;-1,804338e-003
3,133808e+003;-1,722598e-003
3,135737e+003;-1,454267e-003
3,137665e+003;-9,200847e-004
3,139594e+003;-4,665417e-004
3,141522e+003;-1,096610e-003
3,143450e+003;-1,426758e-003
3,145379e+003;-7,863867e-004
3,147307e+003;-9,144638e-004
3,149236e+003;-1,011629e-003
3,151165e+003;-8,153256e-004
3,153093e+003;-8,959143e-004
3,155021e+003;-1,169910e-003
3,156950e+003;-1,051296e-003
3,158878e+003;-7,978633e-004
3,160807e+003;-9,941746e-004
3,162735e+003;-1,179063e-003
3,164664e+003;-1,047792e-003
3,166593e+003;-7,462329e-004
3,168521e+003;-7,777543e-004
3,170449e+003;-8,009060e-004
3,172378e+003;-1,074168e-003
3,174306e+003;-1,228528e-003
3,176235e+003;-5,433233e-004
3,178163e+003;-7,330019e-004
3,180092e+003;-1,309469e-003
3,182021e+003;-1,196312e-003
3,183949e+003;-1,416454e-003
3,185877e+003;-1,405159e-003
3,187806e+003;-1,468863e-003
3,189734e+003;-1,798135e-003
3,191663e+003;-1,606940e-003
3,193591e+003;-1,675995e-003
3,195520e+003;-1,660152e-003
3,197448e+003;-8,981297e-004
3,199377e+003;-2,920446e-004
3,201305e+003;-5,432240e-004
3,203234e+003;-8,210139e-004
3,205162e+003;-1,403508e-003
3,207091e+003;-1,397596e-003
3,209019e+003;-1,160261e-003
3,210948e+003;-9,265652e-004
3,212876e+003;-1,059295e-003
3,214805e+003;-1,228164e-003
3,216733e+003;-9,125130e-004
3,218662e+003;-5,174772e-004
3,220590e+003;-5,769110e-004
3,222519e+003;-7,703455e-004
3,224447e+003;-1,000687e-003
3,226376e+003;-9,058339e-004
3,228304e+003;-9,049742e-004
3,230233e+003;-1,448950e-003
3,232161e+003;-1,314523e-003
3,234090e+003;-8,608301e-004
3,236018e+003;-1,324070e-003
3,237947e+003;-1,351520e-003
3,239875e+003;-1,275046e-003
3,241804e+003;-9,060985e-004
3,243732e+003;-1,908433e-004
3,245661e+003;-5,947462e-004
3,247589e+003;-5,283652e-004
3,249518e+003;-4,125216e-004
3,251446e+003;-8,886398e-004
3,253375e+003;-5,099647e-004
3,255303e+003;-7,592982e-004
3,257232e+003;-1,077540e-003
3,259160e+003;-1,063129e-003
3,261089e+003;-6,367999e-004
3,263017e+003;-8,102655e-004
3,264946e+003;-1,262855e-003
3,266874e+003;-1,104443e-003
3,268803e+003;-9,417410e-004
3,270731e+003;-9,130090e-004
3,272660e+003;-4,652839e-004
3,274588e+003;-3,056202e-004
3,276517e+003;-1,751775e-004
3,278445e+003;-1,137674e-004
3,280374e+003;-4,498597e-004
3,282302e+003;-1,484185e-003
3,284231e+003;-1,555868e-003
3,286159e+003;-7,092180e-004
3,288088e+003;-4,038487e-004
3,290016e+003;-7,290655e-004
3,291945e+003;-6,817277e-004
3,293873e+003;-7,438514e-004
3,295802e+003;-1,203416e-003
3,297730e+003;-1,439704e-003
3,299659e+003;-8,577217e-004
3,301587e+003;-3,574023e-004
3,303516e+003;-8,389713e-004
3,305444e+003;-7,932992e-004
3,307373e+003;-1,027496e-003
3,309301e+003;-1,169051e-003
3,311230e+003;-1,420681e-003
3,313158e+003;-1,557156e-003
3,315087e+003;-1,529356e-003
3,317015e+003;-7,654834e-004
3,318944e+003;-5,577515e-004
3,320872e+003;-5,616563e-004
3,322801e+003;-3,260822e-004
3,324729e+003;-6,854990e-004
3,326658e+003;-1,089306e-003
3,328586e+003;-1,014373e-003
3,330515e+003;-1,264144e-003
3,332443e+003;-1,635131e-003
3,334372e+003;-1,047428e-003
3,336300e+003;-7,814256e-004
3,338229e+003;-9,855463e-004
3,340157e+003;-1,036851e-003
3,342086e+003;-1,231931e-003
3,344014e+003;-1,272403e-003
3,345943e+003;-1,409287e-003
3,347871e+003;-1,643251e-003
3,349800e+003;-1,997985e-003
3,351728e+003;-1,951148e-003
3,353657e+003;-1,555340e-003
3,355585e+003;-1,650150e-003
3,357514e+003;-1,585878e-003
3,359442e+003;-1,802160e-003
3,361371e+003;-9,825710e-004
3,363299e+003;-5,107259e-004
3,365228e+003;-4,213599e-004
3,367156e+003;-5,133403e-004
3,369085e+003;-2,329692e-004
3,371013e+003;6,408210e-004
3,372942e+003;7,134314e-004
3,374870e+003;2,887597e-004
3,376799e+003;-8,069914e-004
3,378727e+003;-1,285353e-003
3,380656e+003;-6,715383e-004
3,382584e+003;-3,547869e-004
3,384513e+003;-4,439679e-004
3,386441e+003;3,296099e-004
3,388370e+003;5,754555e-004
3,390298e+003;-1,124755e-004
3,392227e+003;-5,651308e-004
3,394155e+003;-5,714511e-004
3,396083e+003;-3,731609e-004
3,398012e+003;-4,972891e-004
3,399941e+003;-3,658776e-004
3,401869e+003;-6,367896e-005
3,403798e+003;4,373914e-005
3,405726e+003;-7,517463e-005
3,407655e+003;-5,565932e-004
3,409583e+003;1,776021e-005
3,411511e+003;5,681564e-004
3,413440e+003;-2,487322e-004
3,415369e+003;-1,161847e-003
3,417297e+003;-8,848702e-004
3,419226e+003;-1,248847e-003
3,421154e+003;-1,281786e-003
3,423083e+003;-1,535160e-004
3,425011e+003;-2,531367e-005
3,426939e+003;-6,677007e-004
3,428868e+003;-3,617393e-004
3,430797e+003;-4,989108e-004
3,432725e+003;-7,772251e-004
3,434654e+003;1,538023e-004
3,436582e+003;9,093210e-004
3,438510e+003;-5,224924e-005
3,440439e+003;-5,323034e-004
3,442367e+003;3,572324e-004
3,444296e+003;6,977003e-004
3,446225e+003;-4,932513e-004
3,448153e+003;-4,480723e-004
3,450082e+003;-4,614114e-004
3,452010e+003;-1,895516e-004
3,453938e+003;1,514158e-004
3,455867e+003;6,024632e-004
3,457795e+003;7,376597e-004
3,459724e+003;-4,340046e-004
3,461653e+003;-3,800308e-005
3,463581e+003;6,536630e-004
3,465510e+003;2,422166e-005
3,467438e+003;-1,492432e-004
3,469366e+003;-1,898166e-004
3,471295e+003;-5,485519e-004
3,473223e+003;-5,896505e-004
3,475152e+003;-7,436859e-004
3,477081e+003;-9,084403e-005
3,479009e+003;8,848839e-004
3,480938e+003;2,217514e-003
3,482866e+003;1,015552e-003
3,484794e+003;-1,392708e-003
3,486723e+003;-1,139574e-003
3,488651e+003;-3,798812e-004
3,490580e+003;6,210444e-004
3,492509e+003;6,215753e-004
3,494437e+003;5,621181e-004
3,496365e+003;2,940647e-004
3,498294e+003;-5,194298e-004
3,500222e+003;-3,939507e-004
3,502151e+003;1,598349e-004
3,504079e+003;6,988287e-004
3,506008e+003;1,002201e-003
3,507937e+003;1,044414e-003
3,509865e+003;7,530603e-004
3,511793e+003;7,235208e-004
3,513722e+003;9,997768e-004
3,515650e+003;4,616699e-004
3,517579e+003;-1,244005e-004
3,519507e+003;-1,373851e-004
3,521436e+003;5,705783e-004
3,523365e+003;7,252467e-004
3,525293e+003;8,963054e-004
3,527221e+003;1,127523e-003
3,529150e+003;5,627153e-004
3,531078e+003;1,765409e-004
3,533007e+003;-5,721872e-005
3,534935e+003;-1,292226e-006
3,536864e+003;-1,685533e-004
3,538792e+003;5,687536e-004
3,540721e+003;9,891163e-004
3,542649e+003;9,719141e-004
3,544578e+003;1,071417e-003
3,546506e+003;5,937038e-004
3,548435e+003;6,888394e-004
3,550363e+003;1,524951e-003
3,552292e+003;1,034383e-003
3,554220e+003;-2,374068e-004
3,556149e+003;-9,870339e-004
3,558077e+003;-9,308965e-004
3,560006e+003;7,177426e-005
3,561934e+003;1,987503e-004
3,563863e+003;-7,143784e-004
3,565791e+003;-1,600008e-003
3,567720e+003;-1,556925e-003
3,569648e+003;-6,363697e-004
3,571577e+003;-3,140303e-004
3,573505e+003;-3,948776e-004
3,575434e+003;-4,470131e-004
3,577362e+003;-6,800074e-004
3,579291e+003;-3,321411e-004
3,581219e+003;6,925070e-006
3,583148e+003;9,848987e-004
3,585076e+003;6,765605e-004
3,587005e+003;-5,322372e-004
3,588933e+003;7,190682e-005
3,590862e+003;-4,443048e-005
3,592790e+003;-1,181079e-003
3,594719e+003;-1,494620e-003
3,596647e+003;2,935775e-005
3,598576e+003;3,775939e-004
3,600504e+003;1,883084e-004
3,602433e+003;5,625163e-004
3,604361e+003;-9,385859e-005
3,606290e+003;-1,775762e-003
3,608218e+003;-2,932216e-003
3,610147e+003;-2,104801e-003
3,612075e+003;-5,902130e-004
3,614004e+003;1,375612e-004
3,615932e+003;9,487312e-005
3,617861e+003;-1,253406e-003
3,619789e+003;-2,078751e-003
3,621718e+003;-6,703804e-004
3,623646e+003;7,368631e-004
3,625575e+003;6,793813e-004
3,627503e+003;-7,607535e-004
3,629432e+003;-1,614500e-003
3,631360e+003;-1,228197e-003
3,633289e+003;-8,467758e-004
3,635217e+003;8,194821e-005
3,637146e+003;-8,329099e-005
3,639074e+003;-1,182929e-003
3,641003e+003;-1,639951e-003
3,642931e+003;-1,233021e-003
3,644860e+003;-1,017844e-003
3,646788e+003;-2,963382e-003
3,648717e+003;-6,388146e-003
3,650645e+003;-3,017744e-003
3,652574e+003;-2,791639e-004
3,654502e+003;-1,049081e-003
3,656431e+003;-2,300292e-003
3,658359e+003;-1,762727e-003
3,660288e+003;-1,522257e-003
3,662216e+003;-1,157782e-003
3,664145e+003;-4,900409e-004
3,666073e+003;-7,513929e-004
3,668002e+003;-2,109714e-003
3,669930e+003;-2,532261e-003
3,671859e+003;-1,895102e-003
3,673787e+003;-2,977697e-003
3,675716e+003;-3,140592e-003
3,677644e+003;-7,805325e-004
3,679573e+003;-5,118180e-004
3,681501e+003;-4,660121e-004
3,683430e+003;-4,737571e-004
3,685358e+003;1,785961e-005
3,687287e+003;4,320839e-004
3,689215e+003;-8,687003e-004
3,691144e+003;-1,583600e-003
3,693072e+003;-1,289384e-003
3,695001e+003;-1,143936e-003
3,696929e+003;-1,156328e-003
3,698858e+003;-7,913809e-004
3,700786e+003;-9,381372e-004
3,702715e+003;-1,908826e-003
3,704643e+003;-1,030802e-003
3,706572e+003;-4,079203e-004
3,708500e+003;-7,696355e-005
3,710429e+003;-6,106285e-004
3,712357e+003;-1,470680e-003
3,714286e+003;-1,159335e-003
3,716214e+003;-6,425898e-004
3,718143e+003;-1,186037e-004
3,720071e+003;1,454609e-005
3,722000e+003;-7,471591e-004
3,723928e+003;-1,639455e-003
3,725857e+003;-1,758404e-003
3,727785e+003;-1,116209e-003
3,729714e+003;-1,050205e-003
3,731642e+003;-1,583831e-003
3,733571e+003;-1,781537e-003
3,735499e+003;-2,622807e-003
3,737427e+003;-2,256520e-003
3,739356e+003;-1,349109e-003
3,741285e+003;-1,424380e-003
3,743213e+003;-2,948441e-003
3,745142e+003;-4,864793e-003
3,747070e+003;-4,053004e-003
3,748999e+003;-3,986919e-003
3,750927e+003;-5,566117e-003
3,752855e+003;-3,462550e-003
3,754784e+003;-1,346631e-003
3,756713e+003;-9,500065e-004
3,758641e+003;-1,685435e-003
3,760570e+003;-1,841194e-003
3,762498e+003;-4,426482e-005
3,764427e+003;3,045755e-004
3,766355e+003;-2,182322e-004
3,768283e+003;-2,315121e-004
3,770212e+003;-1,263813e-003
3,772141e+003;-1,573927e-003
3,774069e+003;-1,177345e-003
3,775998e+003;-8,331841e-004
3,777926e+003;-1,002803e-003
3,779854e+003;5,893241e-004
3,781783e+003;4,512217e-004
3,783711e+003;-1,585251e-003
3,785640e+003;-1,228660e-003
3,787569e+003;-9,250038e-005
3,789497e+003;-2,283660e-004
3,791426e+003;-7,210604e-004
3,793354e+003;-1,069310e-003
3,795282e+003;-5,390213e-004
3,797211e+003;-5,445477e-004
3,799139e+003;-1,383988e-003
3,801068e+003;-1,741937e-003
3,802997e+003;-4,245708e-004
3,804925e+003;-4,035838e-004
3,806854e+003;-1,307487e-003
3,808782e+003;-4,419488e-004
3,810710e+003;-1,248974e-004
3,812639e+003;-4,989438e-004
3,814567e+003;-8,403934e-004
3,816496e+003;-1,293447e-003
3,818425e+003;-1,099585e-003
3,820353e+003;-1,273626e-003
3,822281e+003;-1,486827e-003
3,824210e+003;-1,775861e-003
3,826138e+003;-1,141920e-003
3,828067e+003;-1,335004e-003
3,829995e+003;-1,546921e-003
3,831924e+003;-1,625426e-003
3,833853e+003;-2,028690e-003
3,835781e+003;-2,410954e-003
3,837709e+003;-2,626924e-003
3,839638e+003;-1,972984e-003
3,841566e+003;-1,558278e-003
3,843495e+003;-1,419658e-003
3,845423e+003;-9,085122e-004
3,847352e+003;-1,356627e-004
3,849281e+003;9,908208e-005
3,851209e+003;6,017559e-005
3,853137e+003;-5,734696e-004
3,855066e+003;-2,851543e-003
3,856994e+003;-1,100874e-003
3,858923e+003;1,466760e-004
3,860851e+003;-8,282896e-004
3,862780e+003;-2,297820e-003
3,864708e+003;-2,374740e-003
3,866637e+003;-1,395944e-003
3,868565e+003;-1,695996e-003
3,870494e+003;-1,210190e-003
3,872422e+003;-1,221812e-004
3,874351e+003;-1,098263e-003
3,876279e+003;-1,299394e-003
3,878208e+003;-1,228561e-003
3,880136e+003;-1,586505e-003
3,882065e+003;-9,898770e-004
3,883993e+003;-1,024852e-003
3,885922e+003;-1,297808e-003
3,887850e+003;-1,211677e-003
3,889779e+003;-1,561051e-003
3,891707e+003;-1,259089e-003
3,893636e+003;-8,904915e-004
3,895564e+003;-7,226152e-004
3,897493e+003;-6,045403e-004
3,899421e+003;-1,378307e-003
3,901350e+003;-1,844757e-003
3,903278e+003;-2,845618e-003
3,905207e+003;-2,494508e-003
3,907135e+003;-1,353006e-003
3,909064e+003;-1,262888e-003
3,910992e+003;-7,614812e-004
3,912921e+003;-6,906928e-004
3,914849e+003;-5,113547e-004
3,916778e+003;-8,425429e-004
3,918706e+003;-1,578252e-003
3,920635e+003;-1,042173e-003
3,922563e+003;-5,290933e-004
3,924492e+003;-9,263007e-004
3,926420e+003;-1,168059e-003
3,928349e+003;-8,180044e-004
3,930277e+003;-1,004621e-003
3,932206e+003;-1,053411e-003
3,934134e+003;-1,492672e-003
3,936063e+003;-1,508026e-003
3,937991e+003;-1,060947e-003
3,939920e+003;-1,228462e-003
3,941848e+003;-1,886822e-003
3,943777e+003;-1,857261e-003
3,945705e+003;-8,867881e-004
3,947634e+003;-8,421856e-005
3,949562e+003;2,951921e-004
3,951491e+003;-9,767195e-004
3,953419e+003;-1,407867e-003
3,955348e+003;-1,087753e-003
3,957276e+003;-9,850174e-004
3,959205e+003;-5,357119e-004
3,961133e+003;-2,309822e-004
3,963062e+003;-2,598588e-004
3,964990e+003;-5,924300e-004
3,966919e+003;-1,117729e-003
3,968847e+003;-9,925218e-004
3,970776e+003;-3,675660e-004
3,972704e+003;-5,716497e-004
3,974633e+003;-3,475033e-004
3,976561e+003;-3,198245e-004
3,978490e+003;-5,825694e-004
3,980418e+003;-7,434213e-004
3,982347e+003;-2,924751e-004
3,984275e+003;-1,032554e-003
3,986204e+003;-1,747085e-003
3,988132e+003;-1,597829e-003
3,990061e+003;-1,468401e-003
3,991989e+003;-1,004654e-003
3,993918e+003;-1,269760e-003
3,995846e+003;-1,444294e-003
3,997775e+003;-8,047094e-004
3,999703e+003;-7,114013e-004
4,001632e+003;-5,007972e-004
4,003560e+003;-7,478868e-004
4,005489e+003;-1,442709e-003
4,007417e+003;-1,166011e-003
4,009346e+003;-7,269485e-004
4,011274e+003;-7,068362e-004
4,013203e+003;-3,865022e-004
4,015131e+003;2,792440e-004
4,017060e+003;3,131280e-005
4,018988e+003;-1,617965e-004
4,020917e+003;-1,483489e-004
4,022845e+003;-1,535596e-003
4,024774e+003;-1,982484e-003
4,026702e+003;-1,234871e-003
4,028631e+003;-1,009580e-003
4,030559e+003;-1,025215e-003
4,032488e+003;-6,633006e-004
4,034416e+003;8,695242e-005
4,036345e+003;1,990818e-004
4,038273e+003;-6,752435e-004
4,040202e+003;-1,203681e-003
4,042130e+003;-1,285915e-003
4,044059e+003;-1,051924e-003
4,045987e+003;-9,445844e-004
4,047916e+003;-9,278547e-004
4,049844e+003;-4,278478e-004
4,051773e+003;-8,614584e-004
4,053701e+003;-1,613542e-003
4,055630e+003;-1,636121e-003
4,057558e+003;-1,790677e-003
4,059487e+003;-1,417742e-003
4,061415e+003;-9,771162e-004
4,063344e+003;-1,010406e-003
4,065272e+003;-1,049643e-003
4,067201e+003;-1,154676e-003
4,069129e+003;-6,874508e-004
4,071058e+003;-3,818013e-004
4,072986e+003;-2,854884e-004
4,074915e+003;-4,614114e-004
4,076843e+003;-1,071656e-003
4,078771e+003;-5,400141e-004
4,080700e+003;-5,191794e-005
4,082629e+003;-3,372067e-004
4,084557e+003;-6,301166e-004
4,086486e+003;-1,033677e-003
4,088414e+003;-1,228726e-003
4,090343e+003;-1,245807e-003
4,092271e+003;-1,520936e-003
4,094199e+003;-1,561051e-003
4,096128e+003;-1,195420e-003
4,098057e+003;-6,530115e-004
4,099985e+003;-3,741871e-004
4,101914e+003;-5,576853e-004
4,103842e+003;-4,865989e-004
4,105771e+003;-1,971690e-004
4,107699e+003;-1,125417e-004
4,109627e+003;-1,295679e-004
4,111556e+003;-8,022289e-004
4,113484e+003;-6,746811e-004
4,115413e+003;-5,301854e-004
4,117341e+003;-1,000059e-003
4,119270e+003;-1,095420e-003
4,121199e+003;-6,033822e-004
4,123127e+003;-5,017570e-004
4,125056e+003;-7,971318e-005
4,126984e+003;-7,149737e-005
4,128913e+003;-6,099668e-004
4,130841e+003;-7,531460e-004
4,132770e+003;-9,468987e-004
4,134698e+003;-1,219177e-003
4,136626e+003;-3,494897e-004
4,138555e+003;-5,009627e-004
4,140483e+003;-7,161316e-004
4,142412e+003;-4,075296e-005
4,144340e+003;6,219705e-005
4,146269e+003;-5,351494e-004
4,148197e+003;-4,098403e-004
4,150126e+003;2,531515e-004
4,152055e+003;5,478854e-004
4,153983e+003;4,337462e-005
4,155912e+003;-7,325318e-005
4,157840e+003;-3,459056e-005
4,159769e+003;-3,304525e-004
4,161697e+003;-8,410878e-004
4,163625e+003;-7,041898e-004
4,165554e+003;1,418368e-004
4,167482e+003;4,811739e-004
4,169411e+003;-5,229047e-004
4,171339e+003;-6,062278e-004
4,173268e+003;-1,709683e-005
4,175196e+003;-5,959043e-004
4,177125e+003;-1,347655e-003
4,179053e+003;-1,617702e-003
4,180982e+003;-1,018340e-003
4,182911e+003;-6,852343e-004
4,184839e+003;-6,440787e-004
4,186768e+003;-2,966140e-004
4,188696e+003;-3,902761e-004
4,190625e+003;-9,409145e-004
4,192553e+003;-1,948971e-003
4,194481e+003;-1,596046e-003
4,196410e+003;-1,771647e-004
4,198338e+003;4,760325e-004
4,200267e+003;-5,781505e-005
4,202195e+003;-6,970775e-004
4,204124e+003;-2,674750e-004
4,206052e+003;-1,236718e-004
4,207981e+003;-1,417940e-003
4,209909e+003;-2,265584e-003
4,211838e+003;-1,424347e-003
4,213767e+003;-7,124598e-004
4,215695e+003;-6,559229e-004
4,217624e+003;-8,361934e-004
4,219552e+003;2,369148e-005
4,221480e+003;8,738325e-005
4,223409e+003;-1,062402e-003
4,225337e+003;-1,428310e-003
4,227266e+003;-1,148893e-003
4,229194e+003;-6,504309e-004
4,231123e+003;-3,332668e-004
4,233051e+003;-3,668045e-004
4,234980e+003;-1,034272e-003
4,236908e+003;-1,181740e-003
4,238837e+003;-5,805840e-004
4,240765e+003;1,563877e-004
4,242694e+003;7,125353e-004
4,244623e+003;5,503405e-004
4,246551e+003;-2,640643e-004
4,248479e+003;-5,471290e-004
4,250408e+003;-3,383655e-004
4,252336e+003;-6,718029e-004
4,254265e+003;-1,807417e-004
4,256193e+003;3,625015e-005
4,258122e+003;-5,454744e-004
4,260050e+003;-9,724217e-004
4,261979e+003;-8,354328e-004
4,263907e+003;-7,104420e-004
4,265836e+003;-4,635628e-004
4,267764e+003;-7,919100e-004
4,269693e+003;-1,148629e-003
4,271621e+003;-6,942656e-004
4,273550e+003;-3,870981e-004
4,275479e+003;-3,364452e-004
4,277407e+003;-7,373681e-004
4,279335e+003;-1,117101e-003
4,281264e+003;-1,315713e-003
4,283192e+003;-1,009778e-003
4,285121e+003;-7,318693e-005
4,287049e+003;4,761320e-004
4,288978e+003;1,565203e-004
4,290906e+003;-1,637176e-004
4,292835e+003;-5,311062e-005
4,294763e+003;3,893669e-004
4,296692e+003;-4,152360e-004
4,298620e+003;-8,894003e-004
4,300549e+003;-7,047191e-004
4,302477e+003;-2,099528e-004
4,304406e+003;2,385657e-006
4,306334e+003;-3,315783e-004
4,308263e+003;-9,211165e-006
4,310191e+003;-4,311911e-004
4,312120e+003;-9,260362e-004
4,314048e+003;-7,546344e-004
4,315977e+003;-8,243541e-004
4,317905e+003;-4,942442e-004
4,319834e+003;1,695800e-004
4,321762e+003;7,887759e-004
4,323691e+003;1,146326e-003
4,325619e+003;2,982093e-004
4,327548e+003;-5,784662e-004
4,329476e+003;-1,082663e-003
4,331405e+003;-1,755764e-003
4,333333e+003;-1,151900e-003
4,335262e+003;5,059862e-005
4,337190e+003;-9,183323e-004
4,339119e+003;-1,118092e-003
4,341047e+003;-8,074213e-004
4,342976e+003;-4,813695e-004
4,344904e+003;2,664058e-005
4,346833e+003;5,021715e-004
4,348761e+003;3,283831e-004
4,350690e+003;-2,786341e-004
4,352618e+003;-7,933653e-004
4,354547e+003;-9,376082e-004
4,356475e+003;-6,061285e-004
4,358404e+003;-3,058520e-004
4,360332e+003;-5,473606e-004
4,362261e+003;-8,193603e-004
4,364189e+003;-7,307525e-004
4,366118e+003;-1,249541e-003
4,368046e+003;-9,394267e-004
4,369975e+003;-6,778901e-004
4,371903e+003;-9,285159e-004
4,373832e+003;-7,258569e-004
4,375760e+003;-3,329688e-004
4,377688e+003;-2,849518e-006
4,379617e+003;-3,150567e-004
4,381546e+003;-4,783246e-004
4,383474e+003;-9,223537e-005
4,385403e+003;-3,894485e-004
4,387331e+003;-1,368596e-003
4,389260e+003;-4,297015e-004
4,391188e+003;3,263603e-004
4,393117e+003;3,378998e-004
4,395045e+003;-1,115480e-004
4,396974e+003;-3,422723e-004
4,398902e+003;-6,257161e-004
4,400831e+003;-9,128106e-004
4,402759e+003;-6,971767e-004
4,404688e+003;-3,819006e-004
4,406616e+003;-1,093603e-003
4,408544e+003;-1,870788e-003
4,410473e+003;-1,709726e-003
4,412402e+003;-1,664179e-003
4,414330e+003;-9,679917e-004
4,416259e+003;5,661657e-004
4,418187e+003;7,996969e-004
4,420116e+003;-2,372081e-004
4,422044e+003;-1,585317e-003
4,423973e+003;-1,806087e-003
4,425901e+003;-9,414435e-004
4,427830e+003;-5,708886e-004
4,429758e+003;-4,012997e-004
4,431687e+003;-2,063098e-004
4,433615e+003;-6,818269e-004
4,435543e+003;-1,248847e-003
4,437472e+003;-5,817948e-005
4,439400e+003;-4,492639e-004
4,441329e+003;-9,171420e-004
4,443258e+003;-1,406909e-003
4,445186e+003;-3,315120e-004
4,447115e+003;2,825264e-004
4,449043e+003;-2,238621e-004
4,450972e+003;-8,860937e-004
4,452900e+003;-1,437755e-003
4,454829e+003;-1,857030e-003
4,456757e+003;-1,212833e-003
4,458686e+003;-5,272731e-004
4,460614e+003;-5,392860e-004
4,462542e+003;-8,449239e-004
4,464471e+003;-5,040737e-004
4,466399e+003;-7,272313e-005
4,468328e+003;2,434377e-004
4,470256e+003;3,533857e-004
4,472185e+003;2,851789e-004
4,474113e+003;2,244085e-004
4,476042e+003;5,964168e-006
4,477971e+003;-1,886360e-003
4,479899e+003;-3,067690e-003
4,481828e+003;-1,989707e-003
4,483756e+003;-9,750665e-004
4,485685e+003;-5,383925e-004
4,487613e+003;-5,265119e-004
4,489542e+003;-1,681889e-004
4,491470e+003;4,638591e-004
4,493398e+003;4,970134e-006
4,495327e+003;-1,183128e-003
4,497255e+003;-7,711723e-004
4,499184e+003;2,703916e-004
