5,245513e+002;2,587476e-001
5,264797e+002;1,408028e-001
5,284083e+002;1,397589e-002
5,303367e+002;-5,658865e-002
5,322653e+002;-7,104828e-002
5,341937e+002;-3,141614e-002
5,361223e+002;-1,196157e-002
5,380507e+002;7,907219e-003
5,399792e+002;1,013343e-002
5,419077e+002;-3,209532e-002
5,438362e+002;-4,133792e-002
5,457647e+002;-6,536483e-003
5,476932e+002;6,434549e-003
5,496217e+002;3,340945e-002
5,515502e+002;5,100838e-002
5,534787e+002;2,614705e-002
5,554072e+002;6,949473e-003
5,573357e+002;2,390136e-002
5,592642e+002;4,157917e-002
5,611927e+002;4,518538e-002
5,631212e+002;1,487847e-002
5,650497e+002;-5,022232e-003
5,669782e+002;3,653842e-003
5,689067e+002;2,096481e-002
5,708352e+002;4,477140e-002
5,727637e+002;4,914508e-002
5,746922e+002;5,246850e-002
5,766207e+002;4,936861e-002
5,785492e+002;2,550600e-002
5,804777e+002;2,398731e-002
5,824062e+002;2,791023e-002
5,843347e+002;2,250449e-002
5,862632e+002;2,065759e-002
5,881917e+002;9,385407e-003
5,901202e+002;7,647645e-003
5,920486e+002;1,875281e-002
5,939772e+002;2,332756e-002
5,959056e+002;2,523928e-002
5,978342e+002;2,739383e-002
5,997626e+002;3,077043e-002
6,016912e+002;3,010552e-002
6,036196e+002;2,633712e-002
6,055482e+002;2,676839e-002
6,074766e+002;3,330583e-002
6,094052e+002;3,128457e-002
6,113336e+002;2,887782e-002
6,132621e+002;3,115027e-002
6,151906e+002;2,788522e-002
6,171191e+002;2,256744e-002
6,190476e+002;2,669943e-002
6,209761e+002;2,933215e-002
6,229046e+002;2,973408e-002
6,248331e+002;2,712538e-002
6,267616e+002;2,821484e-002
6,286901e+002;2,814876e-002
6,306186e+002;2,079271e-002
6,325471e+002;2,058004e-002
6,344756e+002;2,487608e-002
6,364041e+002;2,743039e-002
6,383326e+002;2,885116e-002
6,402611e+002;2,647712e-002
6,421896e+002;2,504443e-002
6,441181e+002;2,246921e-002
6,460466e+002;2,236956e-002
6,479751e+002;2,214660e-002
6,499036e+002;2,161359e-002
6,518321e+002;2,204814e-002
6,537606e+002;2,310061e-002
6,556891e+002;2,303911e-002
6,576176e+002;2,344215e-002
6,595461e+002;2,409451e-002
6,614745e+002;2,447385e-002
6,634031e+002;2,475238e-002
6,653315e+002;2,506661e-002
6,672601e+002;2,429532e-002
6,691885e+002;2,453523e-002
6,711171e+002;2,601880e-002
6,730455e+002;2,750949e-002
6,749741e+002;2,802346e-002
6,769025e+002;2,761445e-002
6,788311e+002;2,749188e-002
6,807595e+002;2,694018e-002
6,826880e+002;2,735261e-002
6,846165e+002;2,729760e-002
6,865450e+002;2,691085e-002
6,884735e+002;2,673382e-002
6,904020e+002;2,744528e-002
6,923305e+002;2,787964e-002
6,942590e+002;2,819328e-002
6,961875e+002;2,841933e-002
6,981160e+002;2,845867e-002
7,000445e+002;2,883168e-002
7,019730e+002;2,950010e-002
7,039015e+002;2,984380e-002
7,058300e+002;3,028262e-002
7,077585e+002;3,129130e-002
7,096870e+002;3,048745e-002
7,116155e+002;2,642542e-002
7,135440e+002;2,133401e-002
7,154725e+002;1,991136e-002
7,174010e+002;2,114942e-002
7,193295e+002;2,059651e-002
7,212580e+002;2,001755e-002
7,231865e+002;2,177357e-002
7,251150e+002;2,385319e-002
7,270435e+002;2,502298e-002
7,289720e+002;2,609891e-002
7,309005e+002;2,640229e-002
7,328290e+002;2,667399e-002
7,347574e+002;2,811808e-002
7,366860e+002;2,846769e-002
7,386144e+002;2,816782e-002
7,405430e+002;2,732364e-002
7,424714e+002;2,535219e-002
7,444000e+002;2,368915e-002
7,463284e+002;2,215458e-002
7,482570e+002;2,147633e-002
7,501854e+002;2,257603e-002
7,521140e+002;2,323303e-002
7,540424e+002;2,231166e-002
7,559709e+002;2,054391e-002
7,578994e+002;1,999826e-002
7,598279e+002;1,955605e-002
7,617564e+002;1,922437e-002
7,636849e+002;2,017805e-002
7,656134e+002;2,214360e-002
7,675419e+002;2,436645e-002
7,694704e+002;2,519033e-002
7,713989e+002;2,302318e-002
7,733274e+002;1,883007e-002
7,752559e+002;1,540855e-002
7,771844e+002;1,302182e-002
7,791129e+002;1,148186e-002
7,810414e+002;1,026097e-002
7,829699e+002;1,023339e-002
7,848984e+002;1,055888e-002
7,868269e+002;1,125180e-002
7,887554e+002;1,220631e-002
7,906839e+002;1,318499e-002
7,926124e+002;1,401182e-002
7,945409e+002;1,433971e-002
7,964694e+002;1,456521e-002
7,983979e+002;1,562654e-002
8,003264e+002;1,590553e-002
8,022549e+002;1,545686e-002
8,041833e+002;1,532260e-002
8,061119e+002;1,582003e-002
8,080403e+002;1,604589e-002
8,099689e+002;1,627242e-002
8,118973e+002;1,718547e-002
8,138259e+002;1,823398e-002
8,157543e+002;1,775168e-002
8,176829e+002;1,757993e-002
8,196113e+002;1,700711e-002
8,215399e+002;1,602131e-002
8,234683e+002;1,595623e-002
8,253969e+002;1,744249e-002
8,273253e+002;1,900447e-002
8,292538e+002;2,003084e-002
8,311823e+002;2,019111e-002
8,331108e+002;1,879700e-002
8,350393e+002;1,683441e-002
8,369678e+002;1,616882e-002
8,388963e+002;1,808821e-002
8,408248e+002;2,149841e-002
8,427533e+002;2,272875e-002
8,446818e+002;2,259198e-002
8,466103e+002;2,123497e-002
8,485388e+002;1,951570e-002
8,504673e+002;1,800929e-002
8,523958e+002;1,739352e-002
8,543243e+002;1,580082e-002
8,562528e+002;1,581195e-002
8,581813e+002;1,698995e-002
8,601098e+002;1,666619e-002
8,620383e+002;1,525989e-002
8,639668e+002;1,476152e-002
8,658953e+002;1,512452e-002
8,678238e+002;1,614557e-002
8,697523e+002;1,089936e-002
8,716808e+002;6,630413e-003
8,736093e+002;1,171412e-002
8,755378e+002;1,479056e-002
8,774662e+002;1,531796e-002
8,793948e+002;1,526878e-002
8,813232e+002;1,646489e-002
8,832518e+002;1,664102e-002
8,851802e+002;1,696777e-002
8,871088e+002;1,744246e-002
8,890372e+002;1,800507e-002
8,909658e+002;1,834398e-002
8,928942e+002;1,903808e-002
8,948228e+002;1,942720e-002
8,967512e+002;1,964163e-002
8,986797e+002;1,945236e-002
9,006082e+002;1,919099e-002
9,025367e+002;1,860248e-002
9,044652e+002;1,838221e-002
9,063937e+002;1,863468e-002
9,083222e+002;1,914410e-002
9,102507e+002;1,942398e-002
9,121792e+002;1,971603e-002
9,141077e+002;1,989342e-002
9,160362e+002;2,012040e-002
9,179647e+002;2,028792e-002
9,198932e+002;2,074461e-002
9,218217e+002;2,063198e-002
9,237502e+002;2,042404e-002
9,256787e+002;2,017483e-002
9,276072e+002;2,022016e-002
9,295357e+002;2,104628e-002
9,314642e+002;2,170728e-002
9,333927e+002;2,120613e-002
9,353212e+002;2,112921e-002
9,372497e+002;2,092217e-002
9,391782e+002;2,124381e-002
9,411067e+002;2,175567e-002
9,430352e+002;2,158469e-002
9,449637e+002;2,156278e-002
9,468922e+002;2,233405e-002
9,488207e+002;2,266043e-002
9,507491e+002;2,264053e-002
9,526777e+002;2,345208e-002
9,546061e+002;2,427668e-002
9,565347e+002;2,426077e-002
9,584631e+002;2,412057e-002
9,603917e+002;2,401799e-002
9,623201e+002;2,396235e-002
9,642487e+002;2,425239e-002
9,661771e+002;2,609567e-002
9,681057e+002;2,880615e-002
9,700341e+002;3,028056e-002
9,719626e+002;3,047252e-002
9,738911e+002;2,885445e-002
9,758196e+002;2,563958e-002
9,777481e+002;2,291579e-002
9,796766e+002;2,134772e-002
9,816051e+002;2,065116e-002
9,835336e+002;1,987941e-002
9,854621e+002;1,932735e-002
9,873906e+002;1,921700e-002
9,893191e+002;1,939861e-002
9,912476e+002;1,979981e-002
9,931761e+002;1,911560e-002
9,951046e+002;1,861909e-002
9,970331e+002;1,873732e-002
9,989616e+002;1,850255e-002
1,000890e+003;1,764563e-002
1,002819e+003;1,658002e-002
1,004747e+003;1,553676e-002
1,006676e+003;1,445815e-002
1,008604e+003;1,435211e-002
1,010533e+003;1,459030e-002
1,012461e+003;1,441461e-002
1,014390e+003;1,426657e-002
1,016318e+003;1,507101e-002
1,018247e+003;1,596802e-002
1,020175e+003;1,638519e-002
1,022104e+003;1,677376e-002
1,024032e+003;1,712346e-002
1,025961e+003;1,708248e-002
1,027889e+003;1,643928e-002
1,029818e+003;1,519788e-002
1,031746e+003;1,523848e-002
1,033675e+003;1,825143e-002
1,035603e+003;2,186231e-002
1,037531e+003;2,344663e-002
1,039460e+003;2,450624e-002
1,041389e+003;2,661096e-002
1,043317e+003;2,856999e-002
1,045245e+003;2,963612e-002
1,047174e+003;3,009430e-002
1,049103e+003;3,048521e-002
1,051031e+003;3,017375e-002
1,052959e+003;2,972556e-002
1,054888e+003;2,981289e-002
1,056817e+003;2,984284e-002
1,058745e+003;3,003788e-002
1,060673e+003;3,041793e-002
1,062602e+003;3,174203e-002
1,064531e+003;3,270612e-002
1,066459e+003;3,248632e-002
1,068387e+003;3,074159e-002
1,070316e+003;2,820943e-002
1,072245e+003;2,611196e-002
1,074173e+003;2,562781e-002
1,076101e+003;2,683154e-002
1,078030e+003;2,734947e-002
1,079958e+003;2,667353e-002
1,081887e+003;2,566313e-002
1,083815e+003;2,429868e-002
1,085744e+003;2,286009e-002
1,087672e+003;2,197913e-002
1,089601e+003;2,202448e-002
1,091529e+003;2,205888e-002
1,093458e+003;2,258999e-002
1,095386e+003;2,304446e-002
1,097315e+003;2,391235e-002
1,099243e+003;2,481566e-002
1,101172e+003;2,570208e-002
1,103100e+003;2,649184e-002
1,105029e+003;2,712164e-002
1,106957e+003;2,721236e-002
1,108886e+003;2,832376e-002
1,110814e+003;3,029701e-002
1,112743e+003;3,082589e-002
1,114671e+003;3,017868e-002
1,116600e+003;2,992846e-002
1,118528e+003;3,025108e-002
1,120457e+003;3,036480e-002
1,122385e+003;2,977141e-002
1,124314e+003;2,949581e-002
1,126242e+003;2,999783e-002
1,128171e+003;3,048766e-002
1,130099e+003;3,059683e-002
1,132028e+003;2,934537e-002
1,133956e+003;2,810292e-002
1,135885e+003;2,752107e-002
1,137813e+003;2,699659e-002
1,139742e+003;2,735197e-002
1,141670e+003;2,763123e-002
1,143599e+003;2,877305e-002
1,145527e+003;2,869860e-002
1,147456e+003;2,872957e-002
1,149384e+003;2,930365e-002
1,151313e+003;2,952188e-002
1,153241e+003;2,832022e-002
1,155170e+003;2,595185e-002
1,157098e+003;2,426830e-002
1,159027e+003;2,239758e-002
1,160955e+003;2,063567e-002
1,162884e+003;1,991260e-002
1,164812e+003;1,897280e-002
1,166741e+003;1,774837e-002
1,168669e+003;1,713132e-002
1,170598e+003;1,702500e-002
1,172526e+003;1,661565e-002
1,174455e+003;1,605404e-002
1,176383e+003;1,611331e-002
1,178312e+003;1,652515e-002
1,180240e+003;1,649562e-002
1,182169e+003;1,587350e-002
1,184097e+003;1,555620e-002
1,186026e+003;1,593375e-002
1,187954e+003;1,587883e-002
1,189883e+003;1,658456e-002
1,191811e+003;1,790172e-002
1,193740e+003;1,884094e-002
1,195668e+003;1,911996e-002
1,197597e+003;1,878184e-002
1,199525e+003;1,825689e-002
1,201454e+003;1,741156e-002
1,203382e+003;1,614114e-002
1,205311e+003;1,512607e-002
1,207239e+003;1,389084e-002
1,209168e+003;1,235304e-002
1,211096e+003;1,090588e-002
1,213025e+003;9,538573e-003
1,214953e+003;8,332047e-003
1,216882e+003;7,553063e-003
1,218810e+003;7,245385e-003
1,220739e+003;6,894361e-003
1,222667e+003;6,664596e-003
1,224596e+003;6,452339e-003
1,226524e+003;6,590378e-003
1,228453e+003;7,614969e-003
1,230381e+003;8,756411e-003
1,232310e+003;9,385847e-003
1,234238e+003;9,947337e-003
1,236167e+003;1,051852e-002
1,238095e+003;1,145883e-002
1,240024e+003;1,263775e-002
1,241952e+003;1,411720e-002
1,243881e+003;1,562623e-002
1,245809e+003;1,610314e-002
1,247738e+003;1,714676e-002
1,249666e+003;1,784510e-002
1,251595e+003;1,729065e-002
1,253523e+003;1,690837e-002
1,255452e+003;1,628253e-002
1,257380e+003;1,511742e-002
1,259309e+003;1,400495e-002
1,261237e+003;1,292197e-002
1,263166e+003;1,178343e-002
1,265094e+003;1,116054e-002
1,267023e+003;1,094438e-002
1,268951e+003;1,080685e-002
1,270880e+003;1,077033e-002
1,272808e+003;1,178061e-002
1,274737e+003;1,302691e-002
1,276665e+003;1,313359e-002
1,278594e+003;1,274488e-002
1,280522e+003;1,271752e-002
1,282451e+003;1,231531e-002
1,284379e+003;1,127115e-002
1,286308e+003;1,042836e-002
1,288236e+003;9,631759e-003
1,290165e+003;8,901205e-003
1,292093e+003;8,713813e-003
1,294022e+003;8,625489e-003
1,295950e+003;8,767501e-003
1,297879e+003;8,769326e-003
1,299807e+003;8,536641e-003
1,301736e+003;8,252748e-003
1,303664e+003;7,579295e-003
1,305593e+003;7,186092e-003
1,307521e+003;6,690673e-003
1,309450e+003;5,881072e-003
1,311378e+003;5,152637e-003
1,313307e+003;4,602164e-003
1,315235e+003;4,248785e-003
1,317164e+003;3,936049e-003
1,319092e+003;3,639274e-003
1,321021e+003;3,312886e-003
1,322949e+003;3,355625e-003
1,324878e+003;3,544626e-003
1,326806e+003;3,509017e-003
1,328735e+003;3,333320e-003
1,330663e+003;3,249688e-003
1,332592e+003;3,261038e-003
1,334520e+003;3,222015e-003
1,336449e+003;3,351718e-003
1,338377e+003;3,600016e-003
1,340306e+003;3,562899e-003
1,342234e+003;3,354089e-003
1,344163e+003;3,441649e-003
1,346091e+003;3,786282e-003
1,348020e+003;4,072889e-003
1,349948e+003;4,389406e-003
1,351877e+003;4,682573e-003
1,353805e+003;4,816165e-003
1,355734e+003;5,036909e-003
1,357662e+003;5,316828e-003
1,359591e+003;5,677859e-003
1,361519e+003;5,970756e-003
1,363448e+003;6,387169e-003
1,365376e+003;6,663722e-003
1,367305e+003;6,881838e-003
1,369233e+003;7,196771e-003
1,371161e+003;7,163018e-003
1,373090e+003;6,988934e-003
1,375019e+003;7,391395e-003
1,376947e+003;7,864637e-003
1,378875e+003;8,568306e-003
1,380804e+003;9,115441e-003
1,382733e+003;9,482726e-003
1,384661e+003;9,624612e-003
1,386589e+003;9,607945e-003
1,388518e+003;9,812430e-003
1,390447e+003;9,555068e-003
1,392375e+003;9,138924e-003
1,394303e+003;8,694680e-003
1,396232e+003;7,757629e-003
1,398161e+003;6,909072e-003
1,400089e+003;5,766929e-003
1,402017e+003;5,183418e-003
1,403946e+003;5,227180e-003
1,405875e+003;5,212827e-003
1,407803e+003;4,974330e-003
1,409731e+003;4,876811e-003
1,411660e+003;4,718077e-003
1,413589e+003;4,949864e-003
1,415517e+003;5,659496e-003
1,417445e+003;6,752557e-003
1,419374e+003;8,654286e-003
1,421302e+003;1,018437e-002
1,423231e+003;1,166630e-002
1,425159e+003;1,370911e-002
1,427088e+003;1,505389e-002
1,429016e+003;1,568047e-002
1,430945e+003;1,555143e-002
1,432873e+003;1,505142e-002
1,434802e+003;1,442571e-002
1,436730e+003;1,553645e-002
1,438659e+003;1,679859e-002
1,440587e+003;1,676539e-002
1,442516e+003;1,601587e-002
1,444444e+003;1,501451e-002
1,446373e+003;1,404916e-002
1,448301e+003;1,290047e-002
1,450230e+003;1,214003e-002
1,452158e+003;1,210722e-002
1,454087e+003;1,211083e-002
1,456015e+003;1,141889e-002
1,457944e+003;1,046896e-002
1,459872e+003;1,068370e-002
1,461801e+003;1,042616e-002
1,463729e+003;1,009236e-002
1,465658e+003;1,013611e-002
1,467586e+003;1,004960e-002
1,469515e+003;9,534001e-003
1,471443e+003;9,205354e-003
1,473372e+003;9,427494e-003
1,475300e+003;8,789511e-003
1,477229e+003;8,478320e-003
1,479157e+003;8,147230e-003
1,481086e+003;7,691689e-003
1,483014e+003;7,088782e-003
1,484943e+003;6,615710e-003
1,486871e+003;6,438686e-003
1,488800e+003;6,737683e-003
1,490728e+003;6,761509e-003
1,492657e+003;5,994506e-003
1,494585e+003;5,351244e-003
1,496514e+003;4,489929e-003
1,498442e+003;3,456745e-003
1,500371e+003;2,610842e-003
1,502299e+003;2,252951e-003
1,504228e+003;2,017272e-003
1,506156e+003;1,797925e-003
1,508085e+003;1,329349e-003
1,510013e+003;8,953093e-004
1,511942e+003;7,592671e-004
1,513870e+003;7,520978e-004
1,515799e+003;7,056986e-004
1,517727e+003;3,664845e-004
1,519656e+003;1,834356e-004
1,521584e+003;2,958970e-005
1,523513e+003;1,451845e-004
1,525441e+003;2,112809e-004
1,527370e+003;5,992447e-004
1,529298e+003;7,268729e-004
1,531227e+003;7,062295e-004
1,533155e+003;7,288975e-004
1,535084e+003;5,965903e-004
1,537012e+003;7,775231e-004
1,538941e+003;1,107591e-003
1,540869e+003;1,264976e-003
1,542798e+003;1,426840e-003
1,544726e+003;1,156392e-003
1,546655e+003;9,160946e-004
1,548583e+003;8,691798e-004
1,550512e+003;8,427199e-004
1,552440e+003;8,346860e-004
1,554369e+003;1,002799e-003
1,556297e+003;1,061253e-003
1,558226e+003;8,557007e-004
1,560154e+003;1,021563e-003
1,562083e+003;1,189782e-003
1,564011e+003;1,082844e-003
1,565940e+003;1,048565e-003
1,567868e+003;9,088893e-004
1,569797e+003;6,311649e-004
1,571725e+003;9,023483e-004
1,573654e+003;7,979376e-004
1,575582e+003;2,602464e-004
1,577511e+003;3,857852e-004
1,579439e+003;8,654614e-004
1,581368e+003;1,162538e-003
1,583296e+003;1,069192e-003
1,585225e+003;1,026080e-003
1,587153e+003;1,015319e-003
1,589082e+003;1,103405e-003
1,591010e+003;1,065472e-003
1,592939e+003;1,279033e-003
1,594867e+003;1,473017e-003
1,596796e+003;1,540546e-003
1,598724e+003;1,688242e-003
1,600653e+003;2,098470e-003
1,602581e+003;2,012413e-003
1,604510e+003;1,873458e-003
1,606438e+003;1,937821e-003
1,608367e+003;2,430210e-003
1,610295e+003;2,917355e-003
1,612224e+003;2,954050e-003
1,614152e+003;2,892638e-003
1,616081e+003;2,895139e-003
1,618009e+003;3,186532e-003
1,619938e+003;3,355758e-003
1,621866e+003;3,496491e-003
1,623795e+003;4,049209e-003
1,625723e+003;4,063223e-003
1,627652e+003;3,978113e-003
1,629580e+003;3,747044e-003
1,631509e+003;3,895894e-003
1,633437e+003;3,776088e-003
1,635366e+003;4,053691e-003
1,637294e+003;4,348741e-003
1,639223e+003;4,285157e-003
1,641151e+003;4,265549e-003
1,643080e+003;4,744875e-003
1,645008e+003;5,151095e-003
1,646937e+003;5,079247e-003
1,648865e+003;4,835564e-003
1,650794e+003;5,358658e-003
1,652722e+003;6,321303e-003
1,654651e+003;6,044666e-003
1,656579e+003;6,112439e-003
1,658508e+003;6,731558e-003
1,660436e+003;6,916546e-003
1,662365e+003;7,531452e-003
1,664293e+003;8,131802e-003
1,666222e+003;8,664900e-003
1,668150e+003;9,180819e-003
1,670079e+003;1,052086e-002
1,672007e+003;1,141168e-002
1,673936e+003;1,207819e-002
1,675864e+003;1,317536e-002
1,677793e+003;1,418125e-002
1,679721e+003;1,549064e-002
1,681650e+003;1,681072e-002
1,683578e+003;1,762103e-002
1,685507e+003;1,985662e-002
1,687435e+003;2,079570e-002
1,689364e+003;2,300749e-002
1,691292e+003;2,603424e-002
1,693221e+003;2,849165e-002
1,695149e+003;3,125110e-002
1,697078e+003;3,622640e-002
1,699006e+003;3,865836e-002
1,700935e+003;4,539917e-002
1,702863e+003;4,730913e-002
1,704792e+003;4,897966e-002
1,706720e+003;4,872397e-002
1,708649e+003;4,832256e-002
1,710577e+003;4,633031e-002
1,712505e+003;4,331788e-002
1,714434e+003;3,890545e-002
1,716363e+003;3,416995e-002
1,718291e+003;2,758645e-002
1,720219e+003;2,221376e-002
1,722148e+003;1,737314e-002
1,724077e+003;1,299943e-002
1,726005e+003;1,105870e-002
1,727933e+003;9,354598e-003
1,729862e+003;9,453569e-003
1,731791e+003;9,587551e-003
1,733719e+003;9,751769e-003
1,735647e+003;7,168036e-003
1,737576e+003;5,599312e-003
1,739505e+003;4,901105e-003
1,741433e+003;5,802489e-003
1,743361e+003;5,900049e-003
1,745290e+003;5,185699e-003
1,747219e+003;4,940246e-003
1,749147e+003;4,398142e-003
1,751075e+003;2,802621e-003
1,753004e+003;2,067507e-003
1,754932e+003;2,005156e-003
1,756861e+003;1,740735e-003
1,758789e+003;1,154764e-003
1,760718e+003;9,808803e-004
1,762646e+003;7,224919e-004
1,764575e+003;9,543140e-004
1,766503e+003;1,532998e-003
1,768432e+003;2,144386e-003
1,770360e+003;2,450136e-003
1,772289e+003;3,946748e-003
1,774217e+003;6,271111e-003
1,776146e+003;8,084540e-003
1,778074e+003;9,438229e-003
1,780003e+003;9,356967e-003
1,781931e+003;7,696748e-003
1,783860e+003;6,118152e-003
1,785788e+003;4,362563e-003
1,787717e+003;3,388383e-003
1,789645e+003;3,435771e-003
1,791574e+003;3,633962e-003
1,793502e+003;4,459030e-003
1,795431e+003;5,619820e-003
1,797359e+003;7,235210e-003
1,799288e+003;8,600174e-003
1,801216e+003;9,176047e-003
1,803145e+003;8,697520e-003
1,805073e+003;7,921121e-003
1,807002e+003;7,061199e-003
1,808930e+003;5,778984e-003
1,810859e+003;3,881619e-003
1,812787e+003;2,184712e-003
1,814716e+003;6,617931e-004
1,816644e+003;-5,115594e-005
1,818573e+003;-2,587691e-005
1,820501e+003;-1,468915e-004
1,822430e+003;-5,234673e-004
1,824358e+003;-6,771623e-004
1,826287e+003;-1,081142e-003
1,828215e+003;-1,506276e-003
1,830144e+003;-1,118555e-003
1,832072e+003;-6,666750e-004
1,834001e+003;-9,724878e-004
1,835929e+003;-1,300682e-003
1,837858e+003;-1,006571e-003
1,839786e+003;-5,486843e-004
1,841715e+003;-5,684068e-004
1,843643e+003;-7,520544e-004
1,845572e+003;-8,402280e-004
1,847500e+003;-7,387243e-004
1,849429e+003;-7,168263e-004
1,851357e+003;-8,486938e-004
1,853286e+003;-1,103452e-003
1,855214e+003;-1,301409e-003
1,857143e+003;-1,045478e-003
1,859071e+003;-7,900579e-004
1,861000e+003;-3,948445e-004
1,862928e+003;-1,032665e-004
1,864857e+003;-1,145624e-004
1,866785e+003;-3,770490e-005
1,868714e+003;2,120584e-006
1,870642e+003;-2,756871e-004
1,872571e+003;-7,278939e-005
1,874499e+003;-2,079657e-004
1,876428e+003;-5,975918e-004
1,878356e+003;-7,043552e-004
1,880285e+003;-6,492067e-004
1,882213e+003;-4,154677e-004
1,884142e+003;-3,172088e-004
1,886070e+003;-6,089410e-004
1,887999e+003;-6,602238e-004
1,889927e+003;-7,204650e-004
1,891856e+003;-4,062321e-004
1,893784e+003;-3,976083e-007
1,895713e+003;-2,631702e-004
1,897641e+003;-5,401464e-004
1,899570e+003;-3,407493e-004
1,901498e+003;-6,510595e-004
1,903427e+003;-9,865712e-004
1,905355e+003;-9,921581e-004
1,907284e+003;-6,968128e-004
1,909212e+003;-5,285637e-004
1,911141e+003;-5,812127e-004
1,913069e+003;-5,133735e-004
1,914998e+003;-3,499532e-004
1,916926e+003;-9,315247e-004
1,918855e+003;-1,122818e-003
1,920783e+003;-5,512324e-004
1,922712e+003;-6,541032e-004
1,924640e+003;-1,019728e-003
1,926569e+003;-1,176684e-003
1,928497e+003;-1,232856e-003
1,930426e+003;-1,396076e-003
1,932354e+003;-1,251920e-003
1,934283e+003;-7,524844e-004
1,936211e+003;-4,977524e-004
1,938140e+003;-5,279019e-004
1,940068e+003;-4,194069e-004
1,941997e+003;-1,029777e-003
1,943925e+003;-1,335202e-003
1,945854e+003;-1,436666e-003
1,947782e+003;-1,749065e-003
1,949711e+003;-1,060749e-003
1,951639e+003;-5,372673e-004
1,953568e+003;-5,894520e-004
1,955496e+003;-1,217624e-003
1,957425e+003;-1,916875e-003
1,959353e+003;-1,851356e-003
1,961282e+003;-1,461334e-003
1,963210e+003;-1,306926e-003
1,965139e+003;-6,797097e-004
1,967067e+003;2,711874e-004
1,968996e+003;-3,243936e-004
1,970924e+003;-3,946790e-004
1,972853e+003;9,417288e-004
1,974781e+003;2,225852e-004
1,976710e+003;-1,993880e-004
1,978638e+003;1,295417e-003
1,980567e+003;1,053448e-003
1,982495e+003;1,374286e-004
1,984424e+003;-4,310587e-004
1,986352e+003;-6,280983e-004
1,988281e+003;-5,039082e-004
1,990209e+003;-7,095157e-004
1,992138e+003;-5,392198e-004
1,994066e+003;-1,052684e-003
1,995995e+003;-1,235697e-003
1,997923e+003;-1,293711e-003
1,999852e+003;-1,674609e-003
2,001780e+003;-1,080944e-003
2,003709e+003;-1,502710e-003
2,005637e+003;-2,504523e-003
2,007566e+003;-1,737812e-003
2,009494e+003;-2,963822e-004
2,011423e+003;-5,013268e-004
2,013351e+003;-4,604184e-004
2,015280e+003;-6,502985e-004
2,017208e+003;-1,928817e-003
2,019137e+003;-1,960516e-003
2,021065e+003;-1,261501e-003
2,022994e+003;-7,226482e-004
2,024922e+003;-5,117187e-004
2,026851e+003;-1,060253e-003
2,028779e+003;-3,510127e-004
2,030708e+003;1,170445e-003
2,032636e+003;1,721340e-003
2,034565e+003;1,000640e-003
2,036493e+003;1,607961e-004
2,038422e+003;1,238727e-004
2,040350e+003;3,392262e-004
2,042279e+003;3,841271e-004
2,044207e+003;3,697916e-005
2,046135e+003;3,758032e-004
2,048064e+003;4,853534e-004
2,049992e+003;1,717781e-003
2,051921e+003;1,540613e-003
2,053850e+003;1,995127e-004
2,055778e+003;-3,263139e-004
2,057707e+003;-4,946744e-004
2,059635e+003;-2,918459e-004
2,061563e+003;-2,802898e-004
2,063492e+003;-5,355134e-004
2,065420e+003;-1,109467e-003
2,067349e+003;-4,917620e-004
2,069278e+003;6,255571e-004
2,071206e+003;5,549520e-004
2,073135e+003;-3,019780e-004
2,075063e+003;-3,120106e-004
2,076991e+003;-3,309492e-004
2,078920e+003;5,928084e-005
2,080848e+003;6,653107e-004
2,082777e+003;5,519661e-004
2,084706e+003;4,506463e-005
2,086634e+003;2,063084e-004
2,088563e+003;2,702259e-004
2,090491e+003;-5,278688e-004
2,092419e+003;-9,043460e-004
2,094348e+003;-1,456711e-003
2,096276e+003;-1,188811e-003
2,098205e+003;-4,831237e-004
2,100134e+003;-1,646731e-005
2,102062e+003;-2,366451e-004
2,103990e+003;-3,641561e-004
2,105919e+003;2,198669e-004
2,107847e+003;2,669436e-004
2,109776e+003;-6,984094e-005
2,111704e+003;-2,981961e-005
2,113633e+003;-1,444735e-004
2,115562e+003;-4,053383e-004
2,117490e+003;-8,411540e-004
2,119418e+003;-1,656125e-003
2,121347e+003;-1,763024e-003
2,123275e+003;-1,322881e-003
2,125204e+003;-1,644308e-003
2,127132e+003;-2,395862e-003
2,129061e+003;-2,882024e-003
2,130990e+003;-2,921849e-003
2,132918e+003;-2,225567e-003
2,134846e+003;-1,580365e-003
2,136775e+003;-1,364831e-003
2,138703e+003;-1,928718e-003
2,140632e+003;-2,163688e-003
2,142560e+003;-1,383262e-003
2,144489e+003;-1,524561e-004
2,146417e+003;-3,407824e-004
2,148346e+003;-1,344748e-003
2,150274e+003;-2,167183e-003
2,152203e+003;-3,833603e-003
2,154131e+003;-4,743807e-003
2,156060e+003;-5,831724e-003
2,157988e+003;-3,026003e-003
2,159917e+003;2,406021e-003
2,161845e+003;3,527757e-003
2,163774e+003;2,016940e-003
2,165702e+003;1,161641e-003
2,167631e+003;2,780836e-004
2,169559e+003;1,212875e-004
2,171488e+003;4,906608e-004
2,173416e+003;6,035250e-004
2,175345e+003;9,927029e-004
2,177273e+003;3,006261e-003
2,179202e+003;1,730688e-003
2,181130e+003;-4,574726e-004
2,183059e+003;-3,398554e-004
2,184987e+003;1,391853e-004
2,186916e+003;2,867704e-004
2,188844e+003;4,971625e-004
2,190773e+003;6,445707e-004
2,192701e+003;-7,521537e-004
2,194630e+003;-1,463778e-003
2,196558e+003;-8,128783e-004
2,198487e+003;8,338228e-004
2,200415e+003;3,194965e-004
2,202344e+003;-7,720163e-006
2,204272e+003;5,343499e-004
2,206201e+003;8,757536e-004
2,208129e+003;3,845914e-004
2,210058e+003;4,489000e-004
2,211986e+003;2,766579e-004
2,213915e+003;-6,020587e-004
2,215843e+003;-4,724663e-004
2,217772e+003;4,552020e-004
2,219700e+003;7,291962e-004
2,221629e+003;5,968558e-004
2,223557e+003;-2,286309e-004
2,225486e+003;-5,128108e-004
2,227414e+003;-1,985932e-004
2,229343e+003;-6,444426e-004
2,231271e+003;-7,853283e-004
2,233200e+003;-7,728261e-004
2,235128e+003;-1,242504e-003
2,237057e+003;-1,035694e-003
2,238985e+003;-6,825547e-004
2,240914e+003;-3,752796e-004
2,242842e+003;-7,997821e-005
2,244771e+003;-3,478343e-004
2,246699e+003;1,069036e-004
2,248628e+003;9,624831e-004
2,250556e+003;7,503054e-004
2,252485e+003;5,225730e-004
2,254413e+003;1,053813e-003
2,256342e+003;1,357999e-003
2,258270e+003;4,405748e-004
2,260199e+003;-1,610678e-004
2,262127e+003;-1,103555e-004
2,264056e+003;-1,005833e-004
2,265984e+003;2,764922e-004
2,267913e+003;5,635116e-004
2,269841e+003;2,064410e-004
2,271770e+003;1,843306e-004
2,273698e+003;3,760021e-004
2,275627e+003;7,988007e-004
2,277555e+003;1,672642e-003
2,279484e+003;1,708633e-003
2,281412e+003;1,149316e-003
2,283341e+003;1,452205e-003
2,285269e+003;2,010615e-003
2,287198e+003;2,068273e-003
2,289126e+003;1,855322e-003
2,291055e+003;1,231548e-003
2,292983e+003;1,152837e-003
2,294912e+003;1,022892e-003
2,296840e+003;6,461967e-004
2,298769e+003;6,049517e-004
2,300697e+003;4,788851e-004
2,302626e+003;8,489944e-004
2,304554e+003;8,322293e-004
2,306483e+003;3,039123e-004
2,308411e+003;4,098294e-004
2,310340e+003;2,573289e-004
2,312268e+003;9,321605e-005
2,314197e+003;1,086498e-003
2,316125e+003;1,565885e-003
2,318054e+003;1,194899e-003
2,319982e+003;1,598674e-003
2,321911e+003;2,257947e-003
2,323839e+003;1,835257e-003
2,325768e+003;2,658163e-004
2,327696e+003;-6,347817e-004
2,329625e+003;-1,172455e-004
2,331553e+003;1,175092e-004
2,333482e+003;-3,349222e-004
2,335410e+003;-5,532510e-004
2,337339e+003;-8,972700e-004
2,339267e+003;-7,413705e-004
2,341196e+003;-1,131312e-003
2,343124e+003;-5,779699e-004
2,345053e+003;4,298617e-004
2,346981e+003;1,427649e-004
2,348910e+003;-5,909410e-004
2,350838e+003;-5,721791e-004
2,352767e+003;2,683029e-004
2,354695e+003;8,096223e-004
2,356624e+003;1,401642e-003
2,358552e+003;2,102632e-003
2,360481e+003;6,116873e-004
2,362409e+003;4,108815e-005
2,364338e+003;-1,777148e-003
2,366266e+003;-2,918196e-003
2,368195e+003;-1,045775e-003
2,370123e+003;-1,886243e-004
2,372052e+003;-8,610947e-004
2,373980e+003;-1,206588e-003
2,375909e+003;-9,116864e-004
2,377837e+003;-8,278266e-004
2,379766e+003;-1,209661e-003
2,381694e+003;-7,706762e-004
2,383623e+003;-5,069199e-004
2,385551e+003;-7,511944e-004
2,387479e+003;-8,767027e-004
2,389408e+003;-9,230605e-004
2,391337e+003;-7,368058e-004
2,393265e+003;-9,985053e-004
2,395194e+003;-1,243792e-003
2,397122e+003;-1,338836e-003
2,399051e+003;-1,277160e-003
2,400979e+003;-1,304778e-003
2,402907e+003;-1,294075e-003
2,404836e+003;-1,357564e-003
2,406765e+003;-7,401136e-004
2,408693e+003;-2,395924e-004
2,410622e+003;-3,980555e-004
2,412550e+003;-1,059361e-003
2,414479e+003;-1,304646e-003
2,416407e+003;-1,245774e-003
2,418335e+003;-8,491568e-004
2,420264e+003;-2,978060e-004
2,422193e+003;-5,342559e-004
2,424121e+003;-1,016488e-003
2,426050e+003;-8,673115e-004
2,427978e+003;-8,662533e-004
2,429906e+003;-4,524415e-004
2,431835e+003;-5,579500e-004
2,433763e+003;-8,847049e-004
2,435692e+003;-6,617787e-004
2,437621e+003;-3,024085e-004
2,439549e+003;-1,684870e-004
2,441478e+003;-3,634939e-004
2,443406e+003;-6,859952e-004
2,445334e+003;-8,038825e-004
2,447263e+003;-1,066335e-003
2,449191e+003;-1,024554e-003
2,451120e+003;-9,216387e-004
2,453049e+003;-3,852773e-004
2,454977e+003;-1,071423e-004
2,456906e+003;-3,063155e-004
2,458834e+003;-1,464278e-004
2,460762e+003;5,003528e-005
2,462691e+003;7,773942e-005
2,464619e+003;-3,003225e-004
2,466548e+003;-9,344011e-004
2,468477e+003;-1,282678e-003
2,470405e+003;-1,397265e-003
2,472333e+003;-1,102493e-003
2,474262e+003;-7,137499e-004
2,476190e+003;-5,169808e-004
2,478119e+003;-9,105952e-004
2,480047e+003;-1,229089e-003
2,481976e+003;-9,627681e-004
2,483905e+003;-9,392283e-004
2,485833e+003;-1,189538e-003
2,487761e+003;-1,013381e-003
2,489690e+003;-8,808360e-004
2,491618e+003;-9,202500e-004
2,493547e+003;-9,454109e-004
2,495475e+003;-7,307525e-004
2,497404e+003;-1,734552e-004
2,499333e+003;1,281482e-004
2,501261e+003;-2,367444e-004
2,503189e+003;-4,032197e-004
2,505118e+003;-2,237628e-004
2,507046e+003;-3,225726e-004
2,508975e+003;-6,051028e-004
2,510903e+003;-4,866320e-004
2,512832e+003;-3,195596e-004
2,514760e+003;-2,863494e-004
2,516689e+003;-5,260487e-004
2,518617e+003;-9,624706e-004
2,520546e+003;-9,268297e-004
2,522474e+003;-4,125878e-004
2,524403e+003;5,868435e-005
2,526331e+003;-3,284329e-004
2,528260e+003;-8,914835e-004
2,530188e+003;-9,840918e-004
2,532117e+003;-1,137789e-003
2,534045e+003;-7,035282e-004
2,535974e+003;-2,179673e-004
2,537902e+003;-1,461628e-004
2,539831e+003;-3,848470e-004
2,541759e+003;-1,570601e-004
2,543688e+003;-5,413765e-005
2,545616e+003;-3,967976e-004
2,547545e+003;-6,337560e-004
2,549473e+003;-7,358796e-004
2,551402e+003;-8,345730e-004
2,553330e+003;-7,144777e-004
2,555259e+003;-2,252530e-004
2,557187e+003;-5,996102e-004
2,559116e+003;-9,766534e-004
2,561044e+003;-6,965151e-004
2,562973e+003;-3,764383e-004
2,564901e+003;8,078830e-005
2,566830e+003;-8,153522e-005
2,568758e+003;-4,892797e-004
2,570687e+003;-3,511782e-004
2,572615e+003;-1,891210e-004
2,574544e+003;4,102188e-005
2,576472e+003;-9,756879e-005
2,578401e+003;-2,793626e-004
2,580329e+003;-8,935331e-005
2,582258e+003;-1,734552e-004
2,584186e+003;-5,280674e-004
2,586115e+003;-8,406910e-004
2,588043e+003;-5,202902e-004
2,589972e+003;5,732567e-005
2,591900e+003;1,146453e-005
2,593829e+003;-8,862451e-005
2,595757e+003;1,186029e-004
2,597686e+003;5,782275e-005
2,599614e+003;1,435935e-004
2,601543e+003;8,675358e-005
2,603471e+003;-4,916813e-005
2,605400e+003;-3,498814e-005
2,607328e+003;-2,382272e-005
2,609257e+003;8,244532e-005
2,611185e+003;1,192989e-004
2,613114e+003;1,204921e-004
2,615042e+003;-1,722936e-005
2,616971e+003;-1,643800e-004
2,618899e+003;-2,926737e-004
2,620828e+003;-1,817353e-004
2,622756e+003;1,722318e-004
2,624685e+003;4,253179e-004
2,626613e+003;3,260288e-004
2,628542e+003;2,803382e-004
2,630470e+003;5,353783e-004
2,632399e+003;6,568487e-004
2,634327e+003;3,125664e-004
2,636256e+003;9,063105e-005
2,638184e+003;-1,763367e-004
2,640113e+003;-2,831043e-004
2,642041e+003;-7,769237e-005
2,643970e+003;-4,363534e-005
2,645898e+003;-8,441733e-005
2,647827e+003;3,817209e-005
2,649755e+003;1,239058e-004
2,651684e+003;1,066716e-004
2,653612e+003;4,194972e-005
2,655541e+003;3,187612e-005
2,657469e+003;-6,460657e-005
2,659398e+003;-3,097921e-004
2,661326e+003;-5,302184e-004
2,663255e+003;-5,939851e-004
2,665183e+003;-7,715362e-004
2,667112e+003;-9,412782e-004
2,669040e+003;-6,124483e-004
2,670969e+003;-5,212831e-004
2,672897e+003;-5,492138e-004
2,674826e+003;-7,585705e-004
2,676754e+003;-8,981958e-004
2,678683e+003;-7,780520e-004
2,680611e+003;-7,625066e-004
2,682540e+003;-7,864859e-004
2,684468e+003;-4,910338e-004
2,686397e+003;-3,568064e-004
2,688325e+003;-3,208840e-004
2,690254e+003;-3,257842e-004
2,692182e+003;-6,387188e-004
2,694111e+003;-8,231635e-004
2,696039e+003;-6,863261e-004
2,697968e+003;-3,454506e-004
2,699896e+003;-5,004994e-004
2,701825e+003;-7,636311e-004
2,703753e+003;-7,822855e-004
2,705682e+003;-7,115005e-004
2,707610e+003;-6,095035e-004
2,709539e+003;-3,960362e-004
2,711467e+003;-3,032694e-004
2,713396e+003;-5,380947e-004
2,715324e+003;-8,823241e-004
2,717253e+003;-8,978321e-004
2,719181e+003;-7,932992e-004
2,721110e+003;-6,410679e-004
2,723038e+003;-6,078822e-004
2,724967e+003;-4,777619e-004
2,726895e+003;-4,099065e-004
2,728823e+003;-4,563472e-004
2,730752e+003;-4,023259e-004
2,732681e+003;-7,024035e-004
2,734609e+003;-7,953166e-004
2,736538e+003;-4,240081e-004
2,738466e+003;-5,081113e-004
2,740395e+003;-6,000404e-004
2,742323e+003;-5,304501e-004
2,744251e+003;-6,350463e-004
2,746180e+003;-9,273918e-004
2,748109e+003;-7,814256e-004
2,750037e+003;-6,454351e-004
2,751966e+003;-6,416634e-004
2,753894e+003;-4,703149e-004
2,755823e+003;-2,186296e-004
2,757751e+003;-5,847202e-004
2,759679e+003;-8,622190e-004
2,761608e+003;-5,893858e-004
2,763537e+003;-3,628649e-004
2,765465e+003;-4,029549e-004
2,767394e+003;-6,026874e-004
2,769322e+003;-5,584133e-004
2,771250e+003;-3,845490e-004
2,773179e+003;-1,505681e-004
2,775107e+003;-2,644016e-005
2,777036e+003;-2,221401e-004
2,778965e+003;-3,568064e-004
2,780893e+003;-2,739321e-004
2,782822e+003;-2,514477e-004
2,784750e+003;-3,650830e-004
2,786678e+003;-3,785570e-004
2,788607e+003;-3,306512e-004
2,790535e+003;-4,653501e-004
2,792464e+003;-4,975538e-004
2,794393e+003;-1,745813e-004
2,796321e+003;-1,963411e-004
2,798250e+003;-1,468584e-004
2,800178e+003;-4,791851e-004
2,802106e+003;-8,509095e-004
2,804035e+003;-6,225729e-004
2,805963e+003;-5,299206e-004
2,807892e+003;-7,365081e-004
2,809821e+003;-5,783670e-004
2,811749e+003;-2,793295e-004
2,813677e+003;-2,995940e-004
2,815606e+003;-2,840315e-004
2,817534e+003;-4,254202e-005
2,819463e+003;2,395920e-004
2,821391e+003;3,046418e-004
2,823320e+003;4,097631e-004
2,825249e+003;4,289331e-004
2,827177e+003;3,459909e-004
2,829105e+003;2,252042e-004
2,831034e+003;2,709884e-004
2,832962e+003;3,262940e-004
2,834891e+003;5,732989e-004
2,836819e+003;6,592047e-004
2,838748e+003;3,642627e-004
2,840677e+003;2,862730e-004
2,842605e+003;3,611787e-004
2,844533e+003;4,641908e-004
2,846462e+003;6,662067e-004
2,848390e+003;1,170777e-003
2,850319e+003;9,077936e-004
2,852247e+003;7,349381e-004
2,854176e+003;6,793813e-004
2,856104e+003;3,963314e-004
2,858033e+003;6,329899e-004
2,859961e+003;1,103472e-003
2,861890e+003;9,829394e-004
2,863818e+003;1,262550e-003
2,865747e+003;1,346067e-003
2,867675e+003;1,063080e-003
2,869604e+003;1,275810e-003
2,871532e+003;1,618462e-003
2,873461e+003;1,618894e-003
2,875389e+003;1,466999e-003
2,877318e+003;1,416900e-003
2,879246e+003;1,218722e-003
2,881175e+003;1,197257e-003
2,883103e+003;1,663362e-003
2,885032e+003;2,038444e-003
2,886960e+003;2,148914e-003
2,888889e+003;1,967509e-003
2,890817e+003;1,826706e-003
2,892746e+003;1,984951e-003
2,894674e+003;2,398225e-003
2,896603e+003;2,309942e-003
2,898531e+003;2,330295e-003
2,900460e+003;2,527182e-003
2,902388e+003;2,645677e-003
2,904317e+003;2,183413e-003
2,906245e+003;2,078095e-003
2,908174e+003;2,629543e-003
2,910102e+003;2,522850e-003
2,912031e+003;2,488091e-003
2,913959e+003;2,923226e-003
2,915888e+003;3,429192e-003
2,917816e+003;3,493251e-003
2,919745e+003;3,633627e-003
2,921673e+003;3,529928e-003
2,923602e+003;3,637336e-003
2,925530e+003;3,604460e-003
2,927459e+003;3,670684e-003
2,929387e+003;4,262671e-003
2,931316e+003;4,497563e-003
2,933244e+003;4,164207e-003
2,935173e+003;4,139787e-003
2,937101e+003;4,235334e-003
2,939030e+003;4,347502e-003
2,940958e+003;4,689205e-003
2,942887e+003;4,315776e-003
2,944815e+003;3,512691e-003
2,946744e+003;3,604526e-003
2,948672e+003;3,465095e-003
2,950601e+003;3,430360e-003
2,952529e+003;4,614453e-003
2,954458e+003;5,227750e-003
2,956386e+003;5,153140e-003
2,958315e+003;5,699781e-003
2,960243e+003;5,943949e-003
2,962172e+003;5,866228e-003
2,964100e+003;5,567327e-003
2,966029e+003;4,910688e-003
2,967957e+003;4,716403e-003
2,969886e+003;4,662712e-003
2,971814e+003;4,529503e-003
2,973743e+003;3,900909e-003
2,975671e+003;3,445189e-003
2,977600e+003;3,096921e-003
2,979528e+003;2,893105e-003
2,981457e+003;2,782746e-003
2,983385e+003;2,957152e-003
2,985314e+003;2,897208e-003
2,987242e+003;2,848644e-003
2,989171e+003;2,818595e-003
2,991099e+003;2,403955e-003
2,993028e+003;2,058585e-003
2,994956e+003;2,330329e-003
2,996885e+003;2,649111e-003
2,998813e+003;2,788181e-003
3,000742e+003;3,058479e-003
3,002670e+003;3,131963e-003
3,004599e+003;3,328178e-003
3,006527e+003;3,512157e-003
3,008456e+003;3,168074e-003
3,010384e+003;2,802788e-003
3,012313e+003;2,744165e-003
3,014241e+003;3,118179e-003
3,016170e+003;3,074864e-003
3,018098e+003;2,577543e-003
3,020027e+003;2,143920e-003
3,021955e+003;1,640679e-003
3,023884e+003;1,480464e-003
3,025812e+003;1,444559e-003
3,027741e+003;1,061287e-003
3,029669e+003;5,526628e-004
3,031598e+003;1,900984e-004
3,033526e+003;2,799071e-004
3,035455e+003;2,483775e-004
3,037383e+003;4,878745e-004
3,039312e+003;1,023855e-003
3,041240e+003;8,543395e-004
3,043169e+003;3,097149e-004
3,045097e+003;-2,268095e-004
3,047026e+003;-5,654617e-004
3,048954e+003;-6,139042e-004
3,050883e+003;-3,322073e-004
3,052811e+003;-1,545759e-004
3,054740e+003;-3,779281e-004
3,056668e+003;-5,784332e-004
3,058597e+003;-4,523091e-004
3,060525e+003;-3,298566e-004
3,062454e+003;-1,754093e-004
3,064382e+003;-3,078386e-004
3,066311e+003;-2,359497e-004
3,068239e+003;-2,232991e-004
3,070167e+003;-1,340065e-004
3,072096e+003;-2,412813e-004
3,074025e+003;-5,142008e-004
3,075953e+003;-4,099396e-004
3,077882e+003;-6,056653e-004
3,079810e+003;-1,649762e-004
3,081739e+003;-5,093359e-004
3,083667e+003;-9,463036e-004
3,085595e+003;-9,383356e-004
3,087524e+003;-6,630028e-004
3,089453e+003;-6,260800e-004
3,091381e+003;-9,453448e-004
3,093310e+003;-1,318454e-003
3,095238e+003;-1,329587e-003
3,097167e+003;-1,013745e-003
3,099095e+003;-7,590005e-004
3,101023e+003;-3,317438e-004
3,102952e+003;-8,287526e-004
3,104881e+003;-1,403442e-003
3,106809e+003;-1,547449e-003
3,108738e+003;-1,210751e-003
3,110666e+003;-1,041445e-003
3,112594e+003;-1,828260e-003
3,114523e+003;-2,235292e-003
3,116451e+003;-1,732399e-003
3,118380e+003;-1,188877e-003
3,120309e+003;-1,248550e-003
3,122237e+003;-1,196874e-003
3,124166e+003;-1,025381e-003
3,126094e+003;-1,140367e-003
3,128022e+003;-9,712316e-004
3,129951e+003;-1,203383e-003
3,131879e+003;-1,543718e-003
3,133808e+003;-1,283140e-003
3,135737e+003;-9,485187e-004
3,137665e+003;-1,096808e-003
3,139594e+003;-1,444889e-003
3,141522e+003;-1,130882e-003
3,143450e+003;-8,654927e-004
3,145379e+003;-5,998749e-004
3,147307e+003;-1,071227e-003
3,149236e+003;-1,305637e-003
3,151165e+003;-8,774632e-004
3,153093e+003;-9,737772e-004
3,155021e+003;-1,086364e-003
3,156950e+003;-9,594620e-004
3,158878e+003;-7,957466e-004
3,160807e+003;-6,187679e-004
3,162735e+003;-2,992960e-004
3,164664e+003;-4,298008e-004
3,166593e+003;-8,282896e-004
3,168521e+003;-8,516039e-004
3,170449e+003;-6,896342e-004
3,172378e+003;-1,297445e-003
3,174306e+003;-1,740122e-003
3,176235e+003;-1,640347e-003
3,178163e+003;-1,329025e-003
3,180092e+003;-1,485539e-003
3,182021e+003;-7,775889e-004
3,183949e+003;-5,297551e-004
3,185877e+003;-1,097469e-003
3,187806e+003;-1,288756e-003
3,189734e+003;-1,018207e-003
3,191663e+003;-4,149712e-004
3,193591e+003;-5,673148e-004
3,195520e+003;-1,254992e-003
3,197448e+003;-1,364005e-003
3,199377e+003;-1,368101e-003
3,201305e+003;-1,036124e-003
3,203234e+003;-4,999368e-004
3,205162e+003;-4,752134e-004
3,207091e+003;-9,303344e-004
3,209019e+003;-1,804965e-003
3,210948e+003;-1,847627e-003
3,212876e+003;-1,794637e-003
3,214805e+003;-2,085577e-003
3,216733e+003;-1,548737e-003
3,218662e+003;-7,563875e-004
3,220590e+003;-1,250103e-003
3,222519e+003;-1,536058e-003
3,224447e+003;-1,451130e-003
3,226376e+003;-1,359480e-003
3,228304e+003;-1,327208e-003
3,230233e+003;-1,575908e-003
3,232161e+003;-1,433991e-003
3,234090e+003;-1,592481e-003
3,236018e+003;-1,983209e-003
3,237947e+003;-1,595386e-003
3,239875e+003;-1,329785e-003
3,241804e+003;-2,104042e-003
3,243732e+003;-2,463902e-003
3,245661e+003;-2,251707e-003
3,247589e+003;-1,874912e-003
3,249518e+003;-1,017050e-003
3,251446e+003;-1,040421e-003
3,253375e+003;-1,793449e-003
3,255303e+003;-1,938911e-003
3,257232e+003;-1,806186e-003
3,259160e+003;-1,644671e-003
3,261089e+003;-1,601757e-003
3,263017e+003;-1,882005e-003
3,264946e+003;-2,110076e-003
3,266874e+003;-1,959230e-003
3,268803e+003;-1,942341e-003
3,270731e+003;-1,312773e-003
3,272660e+003;-1,078928e-003
3,274588e+003;-1,980669e-003
3,276517e+003;-1,965629e-003
3,278445e+003;-1,142019e-003
3,280374e+003;-1,200905e-003
3,282302e+003;-1,544444e-003
3,284231e+003;-2,419850e-003
3,286159e+003;-3,438916e-003
3,288088e+003;-2,790116e-003
3,290016e+003;-1,475996e-003
3,291945e+003;-1,345739e-003
3,293873e+003;-1,912587e-003
3,295802e+003;-2,234270e-003
3,297730e+003;-2,231534e-003
3,299659e+003;-1,939141e-003
3,301587e+003;-1,926046e-003
3,303516e+003;-1,796023e-003
3,305444e+003;-1,999832e-003
3,307373e+003;-2,230545e-003
3,309301e+003;-1,746128e-003
3,311230e+003;-1,504163e-003
3,313158e+003;-1,523049e-003
3,315087e+003;-1,248484e-003
3,317015e+003;-1,315151e-003
3,318944e+003;-1,990300e-003
3,320872e+003;-2,219370e-003
3,322801e+003;-2,403441e-003
3,324729e+003;-2,437346e-003
3,326658e+003;-1,826346e-003
3,328586e+003;-1,824136e-003
3,330515e+003;-1,836608e-003
3,332443e+003;-1,958933e-003
3,334372e+003;-1,865741e-003
3,336300e+003;-2,107373e-003
3,338229e+003;-2,013816e-003
3,340157e+003;-1,936503e-003
3,342086e+003;-2,063483e-003
3,344014e+003;-2,267002e-003
3,345943e+003;-1,894805e-003
3,347871e+003;-1,960813e-003
3,349800e+003;-2,728350e-003
3,351728e+003;-2,943735e-003
3,353657e+003;-2,910099e-003
3,355585e+003;-2,557395e-003
3,357514e+003;-2,419587e-003
3,359442e+003;-2,032615e-003
3,361371e+003;-2,009364e-003
3,363299e+003;-2,018599e-003
3,365228e+003;-1,852082e-003
3,367156e+003;-2,277681e-003
3,369085e+003;-2,261003e-003
3,371013e+003;-2,522082e-003
3,372942e+003;-3,166348e-003
3,374870e+003;-3,375532e-003
3,376799e+003;-3,021429e-003
3,378727e+003;-3,015670e-003
3,380656e+003;-3,180624e-003
3,382584e+003;-2,514933e-003
3,384513e+003;-1,948114e-003
3,386441e+003;-2,020313e-003
3,388370e+003;-2,968384e-003
3,390298e+003;-3,429317e-003
3,392227e+003;-3,049561e-003
3,394155e+003;-2,792749e-003
3,396083e+003;-2,594746e-003
3,398012e+003;-2,929188e-003
3,399941e+003;-3,725898e-003
3,401869e+003;-2,915168e-003
3,403798e+003;-3,074796e-003
3,405726e+003;-3,678623e-003
3,407655e+003;-2,335194e-003
3,409583e+003;-1,569107e-003
3,411511e+003;-2,269441e-003
3,413440e+003;-2,830443e-003
3,415369e+003;-2,545668e-003
3,417297e+003;-1,927332e-003
3,419226e+003;-1,678834e-003
3,421154e+003;-1,662462e-003
3,423083e+003;-1,663155e-003
3,425011e+003;-1,680055e-003
3,426939e+003;-1,887647e-003
3,428868e+003;-2,372466e-003
3,430797e+003;-2,589674e-003
3,432725e+003;-3,203352e-003
3,434654e+003;-3,668701e-003
3,436582e+003;-3,165888e-003
3,438510e+003;-2,160853e-003
3,440439e+003;-2,085115e-003
3,442367e+003;-1,582940e-003
3,444296e+003;-1,456282e-003
3,446225e+003;-1,701673e-003
3,448153e+003;-1,960681e-003
3,450082e+003;-2,410690e-003
3,452010e+003;-1,884446e-003
3,453938e+003;-1,548175e-003
3,455867e+003;-1,908397e-003
3,457795e+003;-1,867390e-003
3,459724e+003;-2,116045e-003
3,461653e+003;-2,235028e-003
3,463581e+003;-1,930796e-003
3,465510e+003;-1,456810e-003
3,467438e+003;-8,981297e-004
3,469366e+003;-6,436816e-004
3,471295e+003;-1,108211e-003
3,473223e+003;-1,537841e-003
3,475152e+003;-1,833506e-003
3,477081e+003;-1,568018e-003
3,479009e+003;-2,110934e-003
3,480938e+003;-2,933401e-003
3,482866e+003;-2,522444e-003
3,484794e+003;-2,834525e-003
3,486723e+003;-2,794066e-003
3,488651e+003;-2,062493e-003
3,490580e+003;-1,364369e-003
3,492509e+003;-1,928355e-003
3,494437e+003;-1,680253e-003
3,496365e+003;-1,508224e-003
3,498294e+003;-2,097085e-003
3,500222e+003;-1,640710e-003
3,502151e+003;-1,471802e-003
3,504079e+003;-1,818262e-003
3,506008e+003;-1,854589e-003
3,507937e+003;-1,468203e-003
3,509865e+003;-1,439142e-003
3,511793e+003;-1,760912e-003
3,513722e+003;-2,127354e-003
3,515650e+003;-2,138565e-003
3,517579e+003;-2,421399e-003
3,519507e+003;-2,771712e-003
3,521436e+003;-2,638385e-003
3,523365e+003;-1,717713e-003
3,525293e+003;-1,153552e-003
3,527221e+003;-1,577823e-003
3,529150e+003;-2,293799e-003
3,531078e+003;-2,570504e-003
3,533007e+003;-1,468599e-003
3,534935e+003;-3,761735e-004
3,536864e+003;-1,790446e-003
3,538792e+003;-1,745567e-003
3,540721e+003;-1,155866e-003
3,542649e+003;-1,561316e-003
3,544578e+003;-2,407889e-003
3,546506e+003;-2,666542e-003
3,548435e+003;-1,424446e-003
3,550363e+003;-1,815260e-003
3,552292e+003;-2,239346e-003
3,554220e+003;-1,736162e-003
3,556149e+003;-1,924792e-003
3,558077e+003;-2,190260e-003
3,560006e+003;-1,297577e-003
3,561934e+003;-1,401229e-003
3,563863e+003;-2,445748e-003
3,565791e+003;-2,766444e-003
3,567720e+003;-1,891803e-003
3,569648e+003;-2,874881e-003
3,571577e+003;-3,476192e-003
3,573505e+003;-3,062360e-003
3,575434e+003;-2,754921e-003
3,577362e+003;-2,311728e-003
3,579291e+003;-2,907236e-003
3,581219e+003;-3,331409e-003
3,583148e+003;-3,220093e-003
3,585076e+003;-2,802889e-003
3,587005e+003;-2,471315e-003
3,588933e+003;-2,592144e-003
3,590862e+003;-2,062295e-003
3,592790e+003;-1,724149e-003
3,594719e+003;-1,786288e-003
3,596647e+003;-1,608723e-003
3,598576e+003;-1,784837e-003
3,600504e+003;-1,261930e-003
3,602433e+003;-3,050242e-004
3,604361e+003;-1,155039e-003
3,606290e+003;-1,522059e-003
3,608218e+003;-1,398223e-003
3,610147e+003;-2,506072e-003
3,612075e+003;-1,911102e-003
3,614004e+003;-9,538417e-004
3,615932e+003;-1,038768e-003
3,617861e+003;-1,303820e-003
3,619789e+003;-1,745765e-003
3,621718e+003;-1,174867e-003
3,623646e+003;-4,381754e-004
3,625575e+003;8,870888e-005
3,627503e+003;7,416031e-005
3,629432e+003;-1,661802e-003
3,631360e+003;-1,044222e-003
3,633289e+003;-5,086078e-004
3,635217e+003;-1,497559e-003
3,637146e+003;-1,996303e-003
3,639074e+003;-2,334831e-003
3,641003e+003;-2,888574e-003
3,642931e+003;-2,265584e-003
3,644860e+003;-1,397298e-003
3,646788e+003;-2,097744e-003
3,648717e+003;-4,062162e-003
3,650645e+003;-1,832681e-003
3,652574e+003;-1,519946e-003
3,654502e+003;-1,758998e-003
3,656431e+003;-1,871448e-003
3,658359e+003;-2,028591e-003
3,660288e+003;-1,705700e-003
3,662216e+003;-1,606973e-003
3,664145e+003;-1,523710e-003
3,666073e+003;-9,779097e-004
3,668002e+003;-7,857583e-004
3,669930e+003;-1,282678e-003
3,671859e+003;-1,586769e-003
3,673787e+003;-2,967594e-003
3,675716e+003;-7,725946e-004
3,677644e+003;4,044567e-004
3,679573e+003;-4,794168e-004
3,681501e+003;-3,413121e-004
3,683430e+003;-7,578428e-004
3,685358e+003;-1,026835e-003
3,687287e+003;-4,797147e-004
3,689215e+003;-1,322881e-003
3,691144e+003;-9,549657e-004
3,693072e+003;-3,897795e-004
3,695001e+003;-7,269816e-004
3,696929e+003;-4,837525e-004
3,698858e+003;1,231435e-004
3,700786e+003;-6,977468e-005
3,702715e+003;-4,661114e-004
3,704643e+003;-2,331348e-004
3,706572e+003;-7,160324e-004
3,708500e+003;-8,089096e-004
3,710429e+003;-6,794450e-004
3,712357e+003;-5,942829e-004
3,714286e+003;2,939089e-005
3,716214e+003;-5,549597e-005
3,718143e+003;-8,876478e-004
3,720071e+003;-6,362374e-004
3,722000e+003;-3,886209e-004
3,723928e+003;-1,232228e-003
3,725857e+003;-1,225983e-003
3,727785e+003;-7,220198e-004
3,729714e+003;-1,054303e-003
3,731642e+003;-1,141623e-003
3,733571e+003;-7,581075e-004
3,735499e+003;-5,433948e-006
3,737427e+003;4,972952e-004
3,739356e+003;-8,355601e-005
3,741285e+003;-1,604054e-004
3,743213e+003;1,919548e-004
3,745142e+003;1,296214e-003
3,747070e+003;2,680708e-004
3,748999e+003;-1,100047e-003
3,750927e+003;-8,395997e-004
3,752855e+003;-9,168444e-004
3,754784e+003;-4,070596e-004
3,756713e+003;-8,302077e-004
3,758641e+003;-5,951102e-004
3,760570e+003;-1,158874e-004
3,762498e+003;-5,732380e-004
3,764427e+003;-1,526813e-003
3,766355e+003;-2,029053e-003
3,768283e+003;-9,433941e-004
3,770212e+003;-4,848778e-004
3,772141e+003;-3,943810e-004
3,774069e+003;-4,594254e-004
3,775998e+003;-9,433611e-004
3,777926e+003;-7,102435e-004
3,779854e+003;1,953691e-004
3,781783e+003;6,046199e-004
3,783711e+003;4,186847e-004
3,785640e+003;-9,668345e-004
3,787569e+003;-1,291895e-003
3,789497e+003;-1,018670e-003
3,791426e+003;-8,337132e-004
3,793354e+003;-8,603671e-004
3,795282e+003;-1,023827e-003
3,797211e+003;-1,095189e-003
3,799139e+003;-1,089868e-003
3,801068e+003;-1,540185e-003
3,802997e+003;-1,712433e-003
3,804925e+003;-1,991851e-003
3,806854e+003;-1,715865e-003
3,808782e+003;-1,005646e-003
3,810710e+003;-5,608951e-004
3,812639e+003;-3,704131e-004
3,814567e+003;-9,240193e-004
3,816496e+003;-1,722961e-003
3,818425e+003;-2,342345e-003
3,820353e+003;-3,135723e-003
3,822281e+003;-2,649714e-003
3,824210e+003;-1,337382e-003
3,826138e+003;-1,180914e-003
3,828067e+003;-1,042933e-003
3,829995e+003;-8,198234e-004
3,831924e+003;-5,325681e-004
3,833853e+003;1,737897e-004
3,835781e+003;-4,947076e-004
3,837709e+003;-1,052122e-003
3,839638e+003;-5,239637e-004
3,841566e+003;4,383855e-005
3,843495e+003;-1,605048e-004
3,845423e+003;-1,373914e-003
3,847352e+003;-1,273163e-003
3,849281e+003;-7,710732e-004
3,851209e+003;-1,118489e-003
3,853137e+003;-2,102840e-004
3,855066e+003;-1,042073e-003
3,856994e+003;-2,003295e-003
3,858923e+003;-1,821298e-003
3,860851e+003;-1,089504e-003
3,862780e+003;-9,998606e-004
3,864708e+003;-1,350133e-003
3,866637e+003;-7,083910e-004
3,868565e+003;-1,100510e-003
3,870494e+003;-1,060584e-003
3,872422e+003;-1,049808e-003
3,874351e+003;-1,375467e-003
3,876279e+003;-1,589378e-003
3,878208e+003;-1,675203e-003
3,880136e+003;-3,665066e-004
3,882065e+003;-8,948231e-004
3,883993e+003;-1,572012e-003
3,885922e+003;-1,373815e-003
3,887850e+003;-1,152792e-003
3,889779e+003;-4,333095e-004
3,891707e+003;-5,253206e-004
3,893636e+003;-9,101324e-004
3,895564e+003;-1,119580e-003
3,897493e+003;-1,168588e-003
3,899421e+003;-7,717016e-004
3,901350e+003;-7,659914e-005
3,903278e+003;-3,959369e-004
3,905207e+003;-1,045709e-003
3,907135e+003;-8,080828e-004
3,909064e+003;-5,822385e-004
3,910992e+003;-6,527799e-004
3,912921e+003;-8,632111e-004
3,914849e+003;-4,983150e-004
3,916778e+003;1,161503e-004
3,918706e+003;-3,259828e-004
3,920635e+003;-6,222127e-005
3,922563e+003;-1,695138e-004
3,924492e+003;-4,375464e-004
3,926420e+003;-3,511782e-004
3,928349e+003;-7,287016e-004
3,930277e+003;-1,196345e-003
3,932206e+003;-8,929715e-004
3,934134e+003;-1,173479e-003
3,936063e+003;-1,598258e-003
3,937991e+003;-1,018207e-003
3,939920e+003;-3,392925e-004
3,941848e+003;-8,870196e-004
3,943777e+003;-1,653154e-003
3,945705e+003;-9,121493e-004
3,947634e+003;-6,118196e-004
3,949562e+003;-1,143275e-003
3,951491e+003;-1,176684e-003
3,953419e+003;-9,594620e-004
3,955348e+003;-1,012621e-003
3,957276e+003;-1,135839e-003
3,959205e+003;-1,133096e-003
3,961133e+003;-8,290171e-004
3,963062e+003;-7,524183e-004
3,964990e+003;-9,823396e-004
3,966919e+003;-1,372989e-003
3,968847e+003;-1,308214e-003
3,970776e+003;-9,553955e-004
3,972704e+003;-1,033843e-003
3,974633e+003;-1,298303e-003
3,976561e+003;-1,212205e-003
3,978490e+003;-1,484053e-003
3,980418e+003;-1,841920e-003
3,982347e+003;-1,306463e-003
3,984275e+003;-1,048155e-003
3,986204e+003;-1,000687e-003
3,988132e+003;-7,332995e-004
3,990061e+003;-1,089108e-003
3,991989e+003;-1,292588e-003
3,993918e+003;-4,849771e-004
3,995846e+003;-9,435549e-005
3,997775e+003;-1,419893e-004
3,999703e+003;-7,002863e-004
4,001632e+003;-4,274837e-004
4,003560e+003;1,117755e-004
4,005489e+003;-7,693042e-005
4,007417e+003;-1,294685e-004
4,009346e+003;-7,288009e-004
4,011274e+003;-1,233682e-003
4,013203e+003;-1,067062e-003
4,015131e+003;-4,123230e-004
4,017060e+003;-1,282098e-004
4,018988e+003;-6,356088e-004
4,020917e+003;-1,256182e-003
4,022845e+003;-9,348640e-004
4,024774e+003;-6,637307e-004
4,026702e+003;-1,034471e-003
4,028631e+003;-1,485011e-003
4,030559e+003;-1,621168e-003
4,032488e+003;-1,212271e-003
4,034416e+003;-8,084466e-004
4,036345e+003;-7,045537e-004
4,038273e+003;-1,136368e-003
4,040202e+003;-1,919184e-003
4,042130e+003;-1,781438e-003
4,044059e+003;-1,345475e-003
4,045987e+003;-9,544698e-004
4,047916e+003;-5,508022e-004
4,049844e+003;-9,588008e-004
4,051773e+003;-1,439208e-003
4,053701e+003;-1,378968e-003
4,055630e+003;-1,144365e-003
4,057558e+003;-1,357730e-003
4,059487e+003;-1,236325e-003
4,061415e+003;-1,116275e-003
4,063344e+003;-1,158807e-003
4,065272e+003;-1,374245e-003
4,067201e+003;-7,095157e-004
4,069129e+003;2,597786e-005
4,071058e+003;5,209143e-004
4,072986e+003;9,769014e-005
4,074915e+003;-3,303338e-005
4,076843e+003;-5,487505e-004
4,078771e+003;-5,577515e-004
4,080700e+003;-5,725185e-005
4,082629e+003;-4,306283e-004
4,084557e+003;-2,183316e-004
4,086486e+003;-7,103357e-005
4,088414e+003;-6,760375e-004
4,090343e+003;-1,408098e-003
4,092271e+003;-1,383096e-003
4,094199e+003;-8,099348e-004
4,096128e+003;-1,143738e-003
4,098057e+003;-9,606523e-004
4,099985e+003;-2,001166e-004
4,101914e+003;-8,488923e-004
4,103842e+003;-9,807858e-004
4,105771e+003;-7,691548e-004
4,107699e+003;-1,524535e-003
4,109627e+003;-1,403078e-003
4,111556e+003;-8,345730e-004
4,113484e+003;-9,666032e-004
4,115413e+003;-1,444624e-003
4,117341e+003;-1,086992e-003
4,119270e+003;-1,997937e-005
4,121199e+003;-1,334434e-004
4,123127e+003;-1,016191e-003
4,125056e+003;-7,113351e-004
4,126984e+003;-6,321515e-005
4,128913e+003;-4,528056e-004
4,130841e+003;-1,110755e-003
4,132770e+003;-1,457041e-003
4,134698e+003;-1,273890e-003
4,136626e+003;-7,138491e-004
4,138555e+003;-1,696132e-004
4,140483e+003;6,494758e-005
4,142412e+003;1,638787e-004
4,144340e+003;-2,529378e-004
4,146269e+003;-1,870014e-004
4,148197e+003;-2,910844e-004
4,150126e+003;-8,859945e-004
4,152055e+003;-8,291163e-004
4,153983e+003;-2,845613e-004
4,155912e+003;-5,421651e-004
4,157840e+003;-3,195265e-004
4,159769e+003;-4,607825e-004
4,161697e+003;-1,238374e-003
4,163625e+003;-1,163004e-003
4,165554e+003;-9,354261e-004
4,167482e+003;-1,282314e-003
4,169411e+003;-1,666918e-003
4,171339e+003;-1,452517e-003
4,173268e+003;-8,174422e-004
4,175196e+003;-8,772648e-004
4,177125e+003;-1,633283e-003
4,179053e+003;-1,545006e-003
4,180982e+003;-1,317199e-003
4,182911e+003;-9,287143e-004
4,184839e+003;-5,630791e-004
4,186768e+003;-2,471759e-004
4,188696e+003;-5,579500e-004
4,190625e+003;-6,995585e-004
4,192553e+003;-5,403780e-004
4,194481e+003;-6,760706e-004
4,196410e+003;-7,974333e-004
4,198338e+003;-9,411129e-004
4,200267e+003;-8,141350e-004
4,202195e+003;-6,818600e-004
4,204124e+003;-1,903134e-004
4,206052e+003;9,848553e-005
4,207981e+003;-4,074238e-004
4,209909e+003;-5,441837e-004
4,211838e+003;-4,636290e-004
4,213767e+003;-6,328556e-006
4,215695e+003;2,339326e-005
4,217624e+003;-1,052122e-003
4,219552e+003;-1,404796e-003
4,221480e+003;-9,962904e-004
4,223409e+003;-9,243499e-004
4,225337e+003;-4,459870e-004
4,227266e+003;1,659007e-004
4,229194e+003;-3,929519e-005
4,231123e+003;-6,040771e-004
4,233051e+003;-6,004374e-004
4,234980e+003;-4,057686e-004
4,236908e+003;-9,055694e-004
4,238837e+003;-1,014736e-003
4,240765e+003;-2,550572e-004
4,242694e+003;3,255645e-004
4,244623e+003;-2,713593e-005
4,246551e+003;-1,157419e-003
4,248479e+003;-1,033380e-003
4,250408e+003;-1,430823e-004
4,252336e+003;3,041113e-004
4,254265e+003;-4,151036e-004
4,256193e+003;-8,295132e-004
4,258122e+003;-4,113961e-004
4,260050e+003;-9,882902e-004
4,261979e+003;-1,370942e-003
4,263907e+003;-1,277392e-003
4,265836e+003;-9,255733e-004
4,267764e+003;-5,536481e-004
4,269693e+003;-1,025046e-004
4,271621e+003;5,093700e-004
4,273550e+003;7,605617e-004
4,275479e+003;4,854198e-004
4,277407e+003;-3,352864e-004
4,279335e+003;-1,202821e-003
4,281264e+003;-2,042608e-003
4,283192e+003;-1,559632e-003
4,285121e+003;-2,658193e-004
4,287049e+003;-2,274388e-004
4,288978e+003;-5,856136e-004
4,290906e+003;-1,624502e-003
4,292835e+003;-2,495826e-003
4,294763e+003;-2,285361e-003
4,296692e+003;-1,831394e-003
4,298620e+003;-1,342337e-003
4,300549e+003;-6,350463e-004
4,302477e+003;-5,515964e-004
4,304406e+003;-2,444935e-004
4,306334e+003;-4,159312e-004
4,308263e+003;-5,283321e-004
4,310191e+003;-5,262141e-004
4,312120e+003;-4,809393e-004
4,314048e+003;-6,626757e-006
4,315977e+003;-2,080319e-004
4,317905e+003;-2,049188e-004
4,319834e+003;-3,633946e-004
4,321762e+003;-1,897503e-004
4,323691e+003;-7,941503e-005
4,325619e+003;-9,129098e-004
4,327548e+003;-7,169255e-004
4,329476e+003;-1,092446e-003
4,331405e+003;-8,665178e-004
4,333333e+003;-8,607371e-005
4,335262e+003;-4,551887e-004
4,337190e+003;-1,336556e-003
4,339119e+003;-1,861979e-003
4,341047e+003;-1,536521e-003
4,342976e+003;-1,239100e-003
4,344904e+003;-1,718208e-003
4,346833e+003;-8,986588e-004
4,348761e+003;1,138652e-003
4,350690e+003;5,205494e-004
4,352618e+003;-6,031838e-004
4,354547e+003;-7,582066e-004
4,356475e+003;-1,130816e-003
4,358404e+003;-1,016092e-003
4,360332e+003;-1,089207e-003
4,362261e+003;-1,472364e-003
4,364189e+003;-9,960920e-004
4,366118e+003;-6,500669e-004
4,368046e+003;-7,376989e-004
4,369975e+003;-8,678737e-004
4,371903e+003;-9,085122e-004
4,373832e+003;-1,005910e-003
4,375760e+003;-1,288558e-003
4,377688e+003;-4,679318e-004
4,379617e+003;4,456757e-005
4,381546e+003;-8,666171e-004
4,383474e+003;-1,428872e-003
4,385403e+003;-1,071127e-003
4,387331e+003;-1,315448e-003
4,389260e+003;-1,019034e-003
4,391188e+003;-1,163863e-003
4,393117e+003;-1,386762e-003
4,395045e+003;-9,902407e-004
4,396974e+003;-9,774799e-004
4,398902e+003;-1,119976e-003
4,400831e+003;-1,192662e-004
4,402759e+003;3,764996e-004
4,404688e+003;-1,056716e-003
4,406616e+003;-1,979548e-003
4,408544e+003;-1,281290e-003
4,410473e+003;-9,370793e-004
4,412402e+003;-7,462329e-004
4,414330e+003;-5,980220e-004
4,416259e+003;-5,752565e-004
4,418187e+003;-2,540638e-004
4,420116e+003;-6,762131e-005
4,422044e+003;-4,711405e-005
4,423973e+003;-7,800695e-004
4,425901e+003;-8,965426e-004
4,427830e+003;-9,413443e-004
4,429758e+003;-6,060955e-004
4,431687e+003;-5,962683e-004
4,433615e+003;-1,148496e-003
4,435543e+003;-1,780415e-003
4,437472e+003;-9,579743e-004
4,439400e+003;4,216364e-004
4,441329e+003;-4,862679e-004
4,443258e+003;-1,765466e-003
4,445186e+003;-1,393698e-003
4,447115e+003;-1,079490e-003
4,449043e+003;-8,541172e-004
4,450972e+003;3,019229e-004
4,452900e+003;6,163658e-004
4,454829e+003;-2,795282e-004
4,456757e+003;-1,488676e-003
4,458686e+003;-1,839016e-003
4,460614e+003;-6,210840e-004
4,462542e+003;-4,638276e-004
4,464471e+003;-8,229982e-004
4,466399e+003;-3,894154e-004
4,468328e+003;-1,197601e-003
4,470256e+003;-2,991616e-003
4,472185e+003;-2,488018e-003
4,474113e+003;-1,035099e-003
4,476042e+003;-1,613179e-003
4,477971e+003;-2,050193e-003
4,479899e+003;-2,209315e-003
4,481828e+003;-1,744412e-003
4,483756e+003;-7,876105e-004
4,485685e+003;-6,414980e-004
4,487613e+003;-8,280250e-004
4,489542e+003;-4,333757e-004
4,491470e+003;-1,042371e-003
4,493398e+003;-1,038867e-003
4,495327e+003;-6,842088e-004
4,497255e+003;-1,378489e-004
4,499184e+003;-4,791851e-004
