5,245513e+002;3,099203e-002
5,264797e+002;2,108363e-001
5,284083e+002;9,866515e-002
5,303367e+002;-2,282917e-002
5,322653e+002;-7,854862e-002
5,341937e+002;-6,547949e-002
5,361223e+002;-5,202441e-002
5,380507e+002;-1,743258e-002
5,399792e+002;1,137375e-002
5,419077e+002;-2,564789e-002
5,438362e+002;-4,161351e-002
5,457647e+002;-1,266097e-002
5,476932e+002;-7,642648e-003
5,496217e+002;8,593584e-003
5,515502e+002;2,746007e-002
5,534787e+002;2,064192e-002
5,554072e+002;1,246170e-002
5,573357e+002;8,018821e-003
5,592642e+002;1,257433e-003
5,611927e+002;3,057113e-002
5,631212e+002;3,481756e-002
5,650497e+002;1,288418e-002
5,669782e+002;3,170344e-003
5,689067e+002;8,468320e-003
5,708352e+002;8,872256e-003
5,727637e+002;6,443293e-003
5,746922e+002;2,417921e-002
5,766207e+002;2,512172e-002
5,785492e+002;2,148124e-002
5,804777e+002;2,724969e-002
5,824062e+002;1,959359e-002
5,843347e+002;1,398315e-002
5,862632e+002;2,186388e-002
5,881917e+002;2,135224e-002
5,901202e+002;1,632195e-002
5,920486e+002;2,281936e-002
5,939772e+002;2,962665e-002
5,959056e+002;2,765771e-002
5,978342e+002;2,630487e-002
5,997626e+002;2,259711e-002
6,016912e+002;2,239203e-002
6,036196e+002;2,461942e-002
6,055482e+002;2,864586e-002
6,074766e+002;3,140317e-002
6,094052e+002;2,485036e-002
6,113336e+002;2,308328e-002
6,132621e+002;2,732992e-002
6,151906e+002;2,284591e-002
6,171191e+002;2,026893e-002
6,190476e+002;2,369762e-002
6,209761e+002;2,388396e-002
6,229046e+002;2,441100e-002
6,248331e+002;2,451637e-002
6,267616e+002;2,568240e-002
6,286901e+002;2,756040e-002
6,306186e+002;2,572613e-002
6,325471e+002;2,652973e-002
6,344756e+002;2,848018e-002
6,364041e+002;2,699737e-002
6,383326e+002;2,715352e-002
6,402611e+002;2,911592e-002
6,421896e+002;2,858870e-002
6,441181e+002;2,418751e-002
6,460466e+002;2,278148e-002
6,479751e+002;2,325191e-002
6,499036e+002;2,315534e-002
6,518321e+002;2,260284e-002
6,537606e+002;2,267506e-002
6,556891e+002;2,279656e-002
6,576176e+002;2,393511e-002
6,595461e+002;2,538806e-002
6,614745e+002;2,456900e-002
6,634031e+002;2,345334e-002
6,653315e+002;2,403834e-002
6,672601e+002;2,357499e-002
6,691885e+002;2,498153e-002
6,711171e+002;2,565832e-002
6,730455e+002;2,524125e-002
6,749741e+002;2,528996e-002
6,769025e+002;2,512492e-002
6,788311e+002;2,554269e-002
6,807595e+002;2,670425e-002
6,826880e+002;2,745873e-002
6,846165e+002;2,771831e-002
6,865450e+002;2,736090e-002
6,884735e+002;2,668829e-002
6,904020e+002;2,680003e-002
6,923305e+002;2,750282e-002
6,942590e+002;2,829734e-002
6,961875e+002;2,839333e-002
6,981160e+002;2,813961e-002
7,000445e+002;2,856708e-002
7,019730e+002;2,909683e-002
7,039015e+002;2,995235e-002
7,058300e+002;3,128468e-002
7,077585e+002;3,152015e-002
7,096870e+002;2,945854e-002
7,116155e+002;2,555200e-002
7,135440e+002;2,108166e-002
7,154725e+002;1,997040e-002
7,174010e+002;2,105658e-002
7,193295e+002;2,030264e-002
7,212580e+002;1,958256e-002
7,231865e+002;2,155189e-002
7,251150e+002;2,393448e-002
7,270435e+002;2,510712e-002
7,289720e+002;2,609011e-002
7,309005e+002;2,609602e-002
7,328290e+002;2,577524e-002
7,347574e+002;2,678023e-002
7,366860e+002;2,716601e-002
7,386144e+002;2,706990e-002
7,405430e+002;2,683559e-002
7,424714e+002;2,565579e-002
7,444000e+002;2,376828e-002
7,463284e+002;2,131866e-002
7,482570e+002;2,101787e-002
7,501854e+002;2,303293e-002
7,521140e+002;2,357782e-002
7,540424e+002;2,190057e-002
7,559709e+002;2,033751e-002
7,578994e+002;1,956294e-002
7,598279e+002;1,893687e-002
7,617564e+002;1,926614e-002
7,636849e+002;2,038070e-002
7,656134e+002;2,232299e-002
7,675419e+002;2,400122e-002
7,694704e+002;2,420068e-002
7,713989e+002;2,194678e-002
7,733274e+002;1,832925e-002
7,752559e+002;1,554198e-002
7,771844e+002;1,299339e-002
7,791129e+002;1,093931e-002
7,810414e+002;9,851812e-003
7,829699e+002;1,028296e-002
7,848984e+002;1,072618e-002
7,868269e+002;1,089681e-002
7,887554e+002;1,186174e-002
7,906839e+002;1,326659e-002
7,926124e+002;1,430269e-002
7,945409e+002;1,446826e-002
7,964694e+002;1,463083e-002
7,983979e+002;1,529685e-002
8,003264e+002;1,593709e-002
8,022549e+002;1,569359e-002
8,041833e+002;1,519836e-002
8,061119e+002;1,535630e-002
8,080403e+002;1,618722e-002
8,099689e+002;1,658745e-002
8,118973e+002;1,664694e-002
8,138259e+002;1,772797e-002
8,157543e+002;1,789184e-002
8,176829e+002;1,731534e-002
8,196113e+002;1,651200e-002
8,215399e+002;1,581226e-002
8,234683e+002;1,586185e-002
8,253969e+002;1,729238e-002
8,273253e+002;1,921184e-002
8,292538e+002;1,973025e-002
8,311823e+002;1,962725e-002
8,331108e+002;1,864433e-002
8,350393e+002;1,681082e-002
8,369678e+002;1,605902e-002
8,388963e+002;1,805909e-002
8,408248e+002;2,090942e-002
8,427533e+002;2,158908e-002
8,446818e+002;2,120470e-002
8,466103e+002;2,075643e-002
8,485388e+002;1,943988e-002
8,504673e+002;1,777057e-002
8,523958e+002;1,746295e-002
8,543243e+002;1,675031e-002
8,562528e+002;1,560256e-002
8,581813e+002;1,560620e-002
8,601098e+002;1,530873e-002
8,620383e+002;1,476738e-002
8,639668e+002;1,388605e-002
8,658953e+002;1,404618e-002
8,678238e+002;1,466013e-002
8,697523e+002;1,820720e-002
8,716808e+002;2,021349e-002
8,736093e+002;1,636324e-002
8,755378e+002;1,546654e-002
8,774662e+002;1,556492e-002
8,793948e+002;1,556400e-002
8,813232e+002;1,584563e-002
8,832518e+002;1,653606e-002
8,851802e+002;1,684034e-002
8,871088e+002;1,682508e-002
8,890372e+002;1,771148e-002
8,909658e+002;1,854290e-002
8,928942e+002;1,830651e-002
8,948228e+002;1,890638e-002
8,967512e+002;1,948004e-002
8,986797e+002;1,938555e-002
9,006082e+002;1,901707e-002
9,025367e+002;1,871303e-002
9,044652e+002;1,849363e-002
9,063937e+002;1,841111e-002
9,083222e+002;1,891112e-002
9,102507e+002;1,925915e-002
9,121792e+002;1,951238e-002
9,141077e+002;2,021599e-002
9,160362e+002;2,040244e-002
9,179647e+002;2,019333e-002
9,198932e+002;2,004399e-002
9,218217e+002;1,988201e-002
9,237502e+002;1,974922e-002
9,256787e+002;1,979319e-002
9,276072e+002;1,993415e-002
9,295357e+002;2,020801e-002
9,314642e+002;2,044179e-002
9,333927e+002;2,069189e-002
9,353212e+002;2,078215e-002
9,372497e+002;2,080467e-002
9,391782e+002;2,111025e-002
9,411067e+002;2,190273e-002
9,430352e+002;2,192981e-002
9,449637e+002;2,193532e-002
9,468922e+002;2,279632e-002
9,488207e+002;2,289239e-002
9,507491e+002;2,301892e-002
9,526777e+002;2,392510e-002
9,546061e+002;2,423859e-002
9,565347e+002;2,417567e-002
9,584631e+002;2,390154e-002
9,603917e+002;2,392989e-002
9,623201e+002;2,417630e-002
9,642487e+002;2,465565e-002
9,661771e+002;2,664897e-002
9,681057e+002;2,924353e-002
9,700341e+002;3,018419e-002
9,719626e+002;3,005797e-002
9,738911e+002;2,874465e-002
9,758196e+002;2,615377e-002
9,777481e+002;2,333438e-002
9,796766e+002;2,126399e-002
9,816051e+002;2,029879e-002
9,835336e+002;1,999822e-002
9,854621e+002;1,964992e-002
9,873906e+002;1,977058e-002
9,893191e+002;1,977065e-002
9,912476e+002;1,941830e-002
9,931761e+002;1,882270e-002
9,951046e+002;1,847233e-002
9,970331e+002;1,851441e-002
9,989616e+002;1,831083e-002
1,000890e+003;1,747447e-002
1,002819e+003;1,665280e-002
1,004747e+003;1,582484e-002
1,006676e+003;1,470048e-002
1,008604e+003;1,440331e-002
1,010533e+003;1,449261e-002
1,012461e+003;1,429715e-002
1,014390e+003;1,440931e-002
1,016318e+003;1,472958e-002
1,018247e+003;1,532517e-002
1,020175e+003;1,569984e-002
1,022104e+003;1,643467e-002
1,024032e+003;1,723631e-002
1,025961e+003;1,727672e-002
1,027889e+003;1,622440e-002
1,029818e+003;1,479570e-002
1,031746e+003;1,511873e-002
1,033675e+003;1,818101e-002
1,035603e+003;2,163344e-002
1,037531e+003;2,349010e-002
1,039460e+003;2,472646e-002
1,041389e+003;2,651825e-002
1,043317e+003;2,831669e-002
1,045245e+003;2,948698e-002
1,047174e+003;2,994621e-002
1,049103e+003;2,996797e-002
1,051031e+003;2,990127e-002
1,052959e+003;3,003308e-002
1,054888e+003;2,979685e-002
1,056817e+003;2,985733e-002
1,058745e+003;3,038634e-002
1,060673e+003;3,067829e-002
1,062602e+003;3,161137e-002
1,064531e+003;3,233566e-002
1,066459e+003;3,235119e-002
1,068387e+003;3,102990e-002
1,070316e+003;2,817705e-002
1,072245e+003;2,580249e-002
1,074173e+003;2,515483e-002
1,076101e+003;2,636180e-002
1,078030e+003;2,737900e-002
1,079958e+003;2,683447e-002
1,081887e+003;2,581382e-002
1,083815e+003;2,416187e-002
1,085744e+003;2,221111e-002
1,087672e+003;2,142882e-002
1,089601e+003;2,168325e-002
1,091529e+003;2,198293e-002
1,093458e+003;2,259111e-002
1,095386e+003;2,322957e-002
1,097315e+003;2,410736e-002
1,099243e+003;2,468198e-002
1,101172e+003;2,565519e-002
1,103100e+003;2,678900e-002
1,105029e+003;2,710806e-002
1,106957e+003;2,716728e-002
1,108886e+003;2,821255e-002
1,110814e+003;2,975547e-002
1,112743e+003;2,973749e-002
1,114671e+003;2,961949e-002
1,116600e+003;3,017904e-002
1,118528e+003;3,010186e-002
1,120457e+003;3,105723e-002
1,122385e+003;3,092080e-002
1,124314e+003;2,924601e-002
1,126242e+003;2,995420e-002
1,128171e+003;3,092991e-002
1,130099e+003;3,017904e-002
1,132028e+003;2,807230e-002
1,133956e+003;2,769126e-002
1,135885e+003;2,881589e-002
1,137813e+003;2,833543e-002
1,139742e+003;2,623517e-002
1,141670e+003;2,611034e-002
1,143599e+003;2,814519e-002
1,145527e+003;2,914774e-002
1,147456e+003;2,851620e-002
1,149384e+003;2,848273e-002
1,151313e+003;2,814410e-002
1,153241e+003;2,781004e-002
1,155170e+003;2,540492e-002
1,157098e+003;2,298643e-002
1,159027e+003;2,237623e-002
1,160955e+003;2,199464e-002
1,162884e+003;2,029622e-002
1,164812e+003;1,915241e-002
1,166741e+003;1,821428e-002
1,168669e+003;1,715851e-002
1,170598e+003;1,675279e-002
1,172526e+003;1,603991e-002
1,174455e+003;1,597624e-002
1,176383e+003;1,658993e-002
1,178312e+003;1,683734e-002
1,180240e+003;1,662680e-002
1,182169e+003;1,619410e-002
1,184097e+003;1,542620e-002
1,186026e+003;1,577862e-002
1,187954e+003;1,606084e-002
1,189883e+003;1,622471e-002
1,191811e+003;1,718971e-002
1,193740e+003;1,837944e-002
1,195668e+003;1,909549e-002
1,197597e+003;1,859951e-002
1,199525e+003;1,786957e-002
1,201454e+003;1,711422e-002
1,203382e+003;1,605672e-002
1,205311e+003;1,484233e-002
1,207239e+003;1,338840e-002
1,209168e+003;1,209761e-002
1,211096e+003;1,074982e-002
1,213025e+003;9,431456e-003
1,214953e+003;8,291314e-003
1,216882e+003;7,374476e-003
1,218810e+003;6,798833e-003
1,220739e+003;6,545302e-003
1,222667e+003;6,634080e-003
1,224596e+003;6,394936e-003
1,226524e+003;6,494479e-003
1,228453e+003;7,571573e-003
1,230381e+003;8,964521e-003
1,232310e+003;1,006248e-002
1,234238e+003;1,020222e-002
1,236167e+003;1,039565e-002
1,238095e+003;1,155590e-002
1,240024e+003;1,309934e-002
1,241952e+003;1,459708e-002
1,243881e+003;1,571410e-002
1,245809e+003;1,622969e-002
1,247738e+003;1,697059e-002
1,249666e+003;1,743363e-002
1,251595e+003;1,680166e-002
1,253523e+003;1,649266e-002
1,255452e+003;1,635543e-002
1,257380e+003;1,543042e-002
1,259309e+003;1,398859e-002
1,261237e+003;1,281811e-002
1,263166e+003;1,168842e-002
1,265094e+003;1,117553e-002
1,267023e+003;1,085985e-002
1,268951e+003;1,058227e-002
1,270880e+003;1,079829e-002
1,272808e+003;1,157414e-002
1,274737e+003;1,268019e-002
1,276665e+003;1,308800e-002
1,278594e+003;1,262367e-002
1,280522e+003;1,232206e-002
1,282451e+003;1,189525e-002
1,284379e+003;1,097139e-002
1,286308e+003;1,036093e-002
1,288236e+003;9,737197e-003
1,290165e+003;9,016242e-003
1,292093e+003;8,733726e-003
1,294022e+003;8,486835e-003
1,295950e+003;8,616127e-003
1,297879e+003;8,643606e-003
1,299807e+003;8,508122e-003
1,301736e+003;8,265581e-003
1,303664e+003;7,745149e-003
1,305593e+003;7,300239e-003
1,307521e+003;6,772581e-003
1,309450e+003;6,095235e-003
1,311378e+003;5,239521e-003
1,313307e+003;4,345294e-003
1,315235e+003;3,927757e-003
1,317164e+003;3,782171e-003
1,319092e+003;3,650234e-003
1,321021e+003;3,212067e-003
1,322949e+003;3,175785e-003
1,324878e+003;3,363138e-003
1,326806e+003;3,443987e-003
1,328735e+003;3,308746e-003
1,330663e+003;3,395462e-003
1,332592e+003;3,550773e-003
1,334520e+003;3,541720e-003
1,336449e+003;3,576630e-003
1,338377e+003;3,551708e-003
1,340306e+003;3,541686e-003
1,342234e+003;3,537778e-003
1,344163e+003;3,634797e-003
1,346091e+003;3,827764e-003
1,348020e+003;3,963333e-003
1,349948e+003;4,155041e-003
1,351877e+003;4,267422e-003
1,353805e+003;4,470713e-003
1,355734e+003;4,910320e-003
1,357662e+003;5,109688e-003
1,359591e+003;5,329575e-003
1,361519e+003;5,928028e-003
1,363448e+003;6,502182e-003
1,365376e+003;6,732399e-003
1,367305e+003;6,801929e-003
1,369233e+003;6,889177e-003
1,371161e+003;6,912271e-003
1,373090e+003;6,982368e-003
1,375019e+003;7,224463e-003
1,376947e+003;7,540083e-003
1,378875e+003;8,505622e-003
1,380804e+003;9,285301e-003
1,382733e+003;9,525060e-003
1,384661e+003;9,699146e-003
1,386589e+003;9,946456e-003
1,388518e+003;1,013445e-002
1,390447e+003;9,676919e-003
1,392375e+003;9,092500e-003
1,394303e+003;8,727944e-003
1,396232e+003;7,871790e-003
1,398161e+003;7,139270e-003
1,400089e+003;6,000856e-003
1,402017e+003;5,457393e-003
1,403946e+003;5,460983e-003
1,405875e+003;5,032417e-003
1,407803e+003;4,768928e-003
1,409731e+003;4,690846e-003
1,411660e+003;4,504493e-003
1,413589e+003;4,625505e-003
1,415517e+003;5,432363e-003
1,417445e+003;6,686198e-003
1,419374e+003;8,789139e-003
1,421302e+003;1,027010e-002
1,423231e+003;1,145961e-002
1,425159e+003;1,330544e-002
1,427088e+003;1,474010e-002
1,429016e+003;1,545270e-002
1,430945e+003;1,558271e-002
1,432873e+003;1,511293e-002
1,434802e+003;1,492764e-002
1,436730e+003;1,630417e-002
1,438659e+003;1,695216e-002
1,440587e+003;1,650350e-002
1,442516e+003;1,562348e-002
1,444444e+003;1,471758e-002
1,446373e+003;1,394640e-002
1,448301e+003;1,292241e-002
1,450230e+003;1,236368e-002
1,452158e+003;1,223637e-002
1,454087e+003;1,190175e-002
1,456015e+003;1,123150e-002
1,457944e+003;1,087721e-002
1,459872e+003;1,041910e-002
1,461801e+003;9,916793e-003
1,463729e+003;9,893742e-003
1,465658e+003;1,004183e-002
1,467586e+003;9,914250e-003
1,469515e+003;9,574071e-003
1,471443e+003;9,182578e-003
1,473372e+003;9,692031e-003
1,475300e+003;9,271287e-003
1,477229e+003;8,367107e-003
1,479157e+003;7,956183e-003
1,481086e+003;7,609911e-003
1,483014e+003;6,947554e-003
1,484943e+003;6,298610e-003
1,486871e+003;6,046413e-003
1,488800e+003;6,192356e-003
1,490728e+003;6,453247e-003
1,492657e+003;6,001091e-003
1,494585e+003;5,468667e-003
1,496514e+003;4,537371e-003
1,498442e+003;3,315424e-003
1,500371e+003;2,831435e-003
1,502299e+003;2,356946e-003
1,504228e+003;1,614671e-003
1,506156e+003;5,589663e-004
1,508085e+003;1,104103e-003
1,510013e+003;1,078526e-003
1,511942e+003;7,760958e-004
1,513870e+003;8,075642e-004
1,515799e+003;8,886025e-004
1,517727e+003;4,482034e-004
1,519656e+003;2,316356e-004
1,521584e+003;1,702429e-004
1,523513e+003;6,667081e-005
1,525441e+003;8,350581e-005
1,527370e+003;5,716732e-004
1,529298e+003;7,503718e-004
1,531227e+003;6,048190e-004
1,533155e+003;6,309657e-004
1,535084e+003;5,690854e-004
1,537012e+003;7,583046e-004
1,538941e+003;1,073510e-003
1,540869e+003;1,171575e-003
1,542798e+003;1,340084e-003
1,544726e+003;1,307447e-003
1,546655e+003;1,230185e-003
1,548583e+003;9,328297e-004
1,550512e+003;9,432895e-004
1,552440e+003;9,143680e-004
1,554369e+003;5,927747e-004
1,556297e+003;6,437411e-004
1,558226e+003;1,265840e-003
1,560154e+003;6,613949e-004
1,562083e+003;9,337263e-004
1,564011e+003;9,755006e-004
1,565940e+003;6,315298e-004
1,567868e+003;3,674131e-004
1,569797e+003;4,411718e-004
1,571725e+003;7,977052e-004
1,573654e+003;8,169587e-004
1,575582e+003;5,551842e-004
1,577511e+003;6,063784e-004
1,579439e+003;1,027508e-003
1,581368e+003;1,220051e-003
1,583296e+003;1,063014e-003
1,585225e+003;1,075769e-003
1,587153e+003;1,196294e-003
1,589082e+003;1,129748e-003
1,591010e+003;1,151342e-003
1,592939e+003;1,411382e-003
1,594867e+003;1,360658e-003
1,596796e+003;1,264777e-003
1,598724e+003;1,425377e-003
1,600653e+003;1,915655e-003
1,602581e+003;2,189174e-003
1,604510e+003;2,091146e-003
1,606438e+003;1,825441e-003
1,608367e+003;2,105962e-003
1,610295e+003;2,546146e-003
1,612224e+003;2,672814e-003
1,614152e+003;2,596376e-003
1,616081e+003;2,752067e-003
1,618009e+003;2,856249e-003
1,619938e+003;2,955484e-003
1,621866e+003;3,306843e-003
1,623795e+003;3,633594e-003
1,625723e+003;3,646391e-003
1,627652e+003;3,763588e-003
1,629580e+003;3,669748e-003
1,631509e+003;3,943103e-003
1,633437e+003;3,944541e-003
1,635366e+003;3,923276e-003
1,637294e+003;3,976675e-003
1,639223e+003;4,278766e-003
1,641151e+003;4,278900e-003
1,643080e+003;4,577317e-003
1,645008e+003;4,618505e-003
1,646937e+003;4,786381e-003
1,648865e+003;5,047903e-003
1,650794e+003;5,350305e-003
1,652722e+003;5,108112e-003
1,654651e+003;5,277955e-003
1,656579e+003;5,772403e-003
1,658508e+003;6,385555e-003
1,660436e+003;6,892913e-003
1,662365e+003;7,664574e-003
1,664293e+003;8,149019e-003
1,666222e+003;8,646377e-003
1,668150e+003;8,960597e-003
1,670079e+003;9,470703e-003
1,672007e+003;1,075573e-002
1,673936e+003;1,202733e-002
1,675864e+003;1,319923e-002
1,677793e+003;1,432194e-002
1,679721e+003;1,537690e-002
1,681650e+003;1,646134e-002
1,683578e+003;1,736034e-002
1,685507e+003;2,011655e-002
1,687435e+003;2,090858e-002
1,689364e+003;2,304910e-002
1,691292e+003;2,578488e-002
1,693221e+003;2,808245e-002
1,695149e+003;3,082652e-002
1,697078e+003;3,571753e-002
1,699006e+003;3,766678e-002
1,700935e+003;4,394285e-002
1,702863e+003;4,660862e-002
1,704792e+003;4,920719e-002
1,706720e+003;4,877149e-002
1,708649e+003;4,783266e-002
1,710577e+003;4,543411e-002
1,712505e+003;4,334919e-002
1,714434e+003;4,179869e-002
1,716363e+003;3,849139e-002
1,718291e+003;2,655153e-002
1,720219e+003;1,946805e-002
1,722148e+003;1,685832e-002
1,724077e+003;1,375583e-002
1,726005e+003;1,125601e-002
1,727933e+003;1,039707e-002
1,729862e+003;9,942829e-003
1,731791e+003;9,081064e-003
1,733719e+003;7,619421e-003
1,735647e+003;6,007138e-003
1,737576e+003;6,304460e-003
1,739505e+003;6,245665e-003
1,741433e+003;5,250621e-003
1,743361e+003;4,758509e-003
1,745290e+003;4,913001e-003
1,747219e+003;4,853456e-003
1,749147e+003;4,334618e-003
1,751075e+003;2,705954e-003
1,753004e+003;1,995869e-003
1,754932e+003;1,722937e-003
1,756861e+003;1,346299e-003
1,758789e+003;8,998913e-004
1,760718e+003;9,862935e-004
1,762646e+003;1,101745e-003
1,764575e+003;1,175994e-003
1,766503e+003;1,417100e-003
1,768432e+003;1,853225e-003
1,770360e+003;2,139824e-003
1,772289e+003;3,917659e-003
1,774217e+003;6,389321e-003
1,776146e+003;7,770616e-003
1,778074e+003;8,786130e-003
1,780003e+003;8,978457e-003
1,781931e+003;7,742619e-003
1,783860e+003;6,175148e-003
1,785788e+003;4,381507e-003
1,787717e+003;3,202654e-003
1,789645e+003;3,051005e-003
1,791574e+003;3,635465e-003
1,793502e+003;4,358948e-003
1,795431e+003;5,377209e-003
1,797359e+003;7,141965e-003
1,799288e+003;8,668111e-003
1,801216e+003;8,981975e-003
1,803145e+003;8,145171e-003
1,805073e+003;7,749365e-003
1,807002e+003;6,881838e-003
1,808930e+003;5,628111e-003
1,810859e+003;3,963600e-003
1,812787e+003;2,310675e-003
1,814716e+003;1,084438e-003
1,816644e+003;4,004106e-004
1,818573e+003;2,294144e-004
1,820501e+003;-5,224924e-005
1,822430e+003;-4,356928e-004
1,824358e+003;-5,646345e-004
1,826287e+003;-1,055890e-003
1,828215e+003;-1,466651e-003
1,830144e+003;-1,358093e-003
1,832072e+003;-1,081142e-003
1,834001e+003;-9,083138e-004
1,835929e+003;-8,242549e-004
1,837858e+003;-8,806377e-004
1,839786e+003;-8,669808e-004
1,841715e+003;-8,626489e-004
1,843643e+003;-1,104013e-003
1,845572e+003;-1,208703e-003
1,847500e+003;-7,559244e-004
1,849429e+003;-7,199689e-004
1,851357e+003;-1,054964e-003
1,853286e+003;-1,043825e-003
1,855214e+003;-1,063790e-003
1,857143e+003;-8,358296e-004
1,859071e+003;-7,711393e-004
1,861000e+003;-7,216559e-004
1,862928e+003;-2,683028e-004
1,864857e+003;-2,177354e-004
1,866785e+003;-9,856258e-005
1,868714e+003;-1,325341e-005
1,870642e+003;-2,634351e-004
1,872571e+003;-4,005383e-004
1,874499e+003;-3,112821e-004
1,876428e+003;-3,054878e-004
1,878356e+003;-6,276351e-004
1,880285e+003;-4,984805e-004
1,882213e+003;-2,408177e-004
1,884142e+003;-4,152691e-004
1,886070e+003;-9,681900e-004
1,887999e+003;-1,023529e-003
1,889927e+003;-6,649217e-004
1,891856e+003;-5,750580e-004
1,893784e+003;-4,593261e-004
1,895713e+003;-2,422085e-004
1,897641e+003;-5,121490e-004
1,899570e+003;-2,865811e-004
1,901498e+003;-3,001569e-004
1,903427e+003;-9,589992e-004
1,905355e+003;-1,453409e-003
1,907284e+003;-1,008522e-003
1,909212e+003;-6,043418e-004
1,911141e+003;-9,024944e-004
1,913069e+003;-8,976337e-004
1,914998e+003;-7,057115e-004
1,916926e+003;-8,682374e-004
1,918855e+003;-8,355320e-004
1,920783e+003;-6,470893e-004
1,922712e+003;-6,540702e-004
1,924640e+003;-1,080878e-003
1,926569e+003;-1,329289e-003
1,928497e+003;-1,112904e-003
1,930426e+003;-1,553986e-003
1,932354e+003;-1,640710e-003
1,934283e+003;-1,366086e-003
1,936211e+003;-1,275376e-003
1,938140e+003;-8,592429e-004
1,940068e+003;-9,217048e-004
1,941997e+003;-1,560292e-003
1,943925e+003;-1,893354e-003
1,945854e+003;-1,694280e-003
1,947782e+003;-1,557288e-003
1,949711e+003;-1,600074e-003
1,951639e+003;-9,038170e-004
1,953568e+003;-5,513154e-005
1,955496e+003;-7,402128e-004
1,957425e+003;-2,204271e-003
1,959353e+003;-1,987464e-003
1,961282e+003;-1,644407e-003
1,963210e+003;-1,752860e-003
1,965139e+003;-1,309469e-003
1,967067e+003;-1,083786e-003
1,968996e+003;-1,755401e-003
1,970924e+003;-2,059426e-003
1,972853e+003;-8,232628e-004
1,974781e+003;-8,224360e-004
1,976710e+003;5,044272e-004
1,978638e+003;3,626444e-003
1,980567e+003;2,858650e-003
1,982495e+003;3,254982e-004
1,984424e+003;-3,685592e-004
1,986352e+003;1,856897e-004
1,988281e+003;3,287478e-004
1,990209e+003;-3,313278e-005
1,992138e+003;2,460236e-004
1,994066e+003;-1,072218e-003
1,995995e+003;-1,437656e-003
1,997923e+003;-9,069251e-004
1,999852e+003;-7,149408e-004
2,001780e+003;-6,629035e-004
2,003709e+003;-1,550024e-003
2,005637e+003;-1,997886e-003
2,007566e+003;-1,178799e-003
2,009494e+003;-9,957944e-004
2,011423e+003;-1,298171e-003
2,013351e+003;-6,721668e-004
2,015280e+003;-4,254976e-004
2,017208e+003;-1,572376e-003
2,019137e+003;-1,800576e-003
2,021065e+003;-1,848551e-003
2,022994e+003;-1,920009e-003
2,024922e+003;-1,569305e-003
2,026851e+003;-8,145980e-004
2,028779e+003;-1,171462e-004
2,030708e+003;7,749673e-004
2,032636e+003;1,061619e-003
2,034565e+003;6,622909e-004
2,036493e+003;-1,273526e-003
2,038422e+003;-1,781537e-003
2,040350e+003;-1,244005e-004
2,042279e+003;8,354495e-004
2,044207e+003;7,208657e-004
2,046135e+003;7,584041e-004
2,048064e+003;-1,375507e-004
2,049992e+003;5,487812e-004
2,051921e+003;5,256250e-004
2,053850e+003;-2,752235e-004
2,055778e+003;-1,790857e-004
2,057707e+003;6,382085e-005
2,059635e+003;1,237401e-004
2,061563e+003;-5,411392e-004
2,063492e+003;-6,085770e-004
2,065420e+003;1,386881e-004
2,067349e+003;2,132699e-004
2,069278e+003;1,415717e-004
2,071206e+003;3,358108e-004
2,073135e+003;2,821617e-004
2,075063e+003;2,450291e-004
2,076991e+003;-4,151497e-005
2,078920e+003;-1,269180e-004
2,080848e+003;1,333187e-004
2,082777e+003;1,120738e-004
2,084706e+003;-1,028028e-004
2,086634e+003;-4,384402e-004
2,088563e+003;-1,318190e-003
2,090491e+003;-1,902426e-003
2,092419e+003;-1,553227e-003
2,094348e+003;-1,486200e-003
2,096276e+003;-1,222283e-003
2,098205e+003;-1,289020e-003
2,100134e+003;-6,840434e-004
2,102062e+003;-4,649860e-004
2,103990e+003;-7,790773e-004
2,105919e+003;-3,964997e-004
2,107847e+003;-6,096620e-006
2,109776e+003;2,658163e-004
2,111704e+003;4,913243e-004
2,113633e+003;4,996504e-004
2,115562e+003;1,965625e-004
2,117490e+003;-5,812789e-004
2,119418e+003;-1,528299e-003
2,121347e+003;-1,691508e-003
2,123275e+003;-1,580167e-003
2,125204e+003;-1,744775e-003
2,127132e+003;-2,355857e-003
2,129061e+003;-3,011064e-003
2,130990e+003;-3,362743e-003
2,132918e+003;-2,872676e-003
2,134846e+003;-2,451811e-003
2,136775e+003;-1,729726e-003
2,138703e+003;-1,966816e-003
2,140632e+003;-2,605615e-003
2,142560e+003;-3,262452e-003
2,144489e+003;-3,051108e-003
2,146417e+003;-2,161974e-003
2,148346e+003;-1,444096e-003
2,150274e+003;-2,157028e-003
2,152203e+003;-4,208736e-003
2,154131e+003;-4,961275e-003
2,156060e+003;-5,590650e-003
2,157988e+003;-3,417909e-003
2,159917e+003;1,887701e-003
2,161845e+003;4,196758e-003
2,163774e+003;2,548113e-003
2,165702e+003;8,901630e-004
2,167631e+003;2,922411e-004
2,169559e+003;8,603818e-004
2,171488e+003;1,049562e-003
2,173416e+003;2,004656e-005
2,175345e+003;-9,841579e-004
2,177273e+003;7,758635e-004
2,179202e+003;5,636466e-005
2,181130e+003;-7,319433e-004
2,183059e+003;3,666503e-004
2,184987e+003;5,104647e-004
2,186916e+003;5,038965e-004
2,188844e+003;1,299039e-003
2,190773e+003;1,429167e-003
2,192701e+003;3,151528e-004
2,194630e+003;-1,131973e-003
2,196558e+003;-1,292027e-003
2,198487e+003;-7,252436e-005
2,200415e+003;-5,282328e-004
2,202344e+003;-7,324064e-004
2,204272e+003;-3,437290e-004
2,206201e+003;1,191664e-004
2,208129e+003;4,593149e-004
2,210058e+003;-2,476063e-004
2,211986e+003;-8,609293e-004
2,213915e+003;-1,020422e-003
2,215843e+003;-7,990870e-004
2,217772e+003;1,636852e-005
2,219700e+003;2,228504e-004
2,221629e+003;-7,222844e-004
2,223557e+003;-1,150710e-003
2,225486e+003;-7,569828e-004
2,227414e+003;-7,371366e-004
2,229343e+003;-6,691563e-004
2,231271e+003;-4,261266e-004
2,233200e+003;-2,026336e-004
2,235128e+003;-2,514801e-005
2,237057e+003;3,823363e-004
2,238985e+003;1,515153e-004
2,240914e+003;-1,623927e-004
2,242842e+003;-3,689895e-004
2,244771e+003;-9,746940e-005
2,246699e+003;4,960449e-005
2,248628e+003;1,137972e-004
2,250556e+003;-2,258160e-004
2,252485e+003;2,623683e-004
2,254413e+003;6,375027e-004
2,256342e+003;9,222705e-004
2,258270e+003;3,558396e-004
2,260199e+003;-1,134693e-004
2,262127e+003;-3,027727e-004
2,264056e+003;5,616583e-005
2,265984e+003;5,994770e-004
2,267913e+003;3,686401e-004
2,269841e+003;-3,114146e-004
2,271770e+003;1,305346e-004
2,273698e+003;6,492495e-004
2,275627e+003;7,502390e-004
2,277555e+003;1,091347e-003
2,279484e+003;1,150678e-003
2,281412e+003;1,055806e-003
2,283341e+003;1,174266e-003
2,285269e+003;1,303492e-003
2,287198e+003;1,292260e-003
2,289126e+003;1,402606e-003
2,291055e+003;8,773804e-004
2,292983e+003;3,711936e-004
2,294912e+003;4,745730e-004
2,296840e+003;4,854861e-004
2,298769e+003;5,651372e-004
2,300697e+003;4,449861e-004
2,302626e+003;4,091661e-004
2,304554e+003;5,888264e-004
2,306483e+003;6,437411e-004
2,308411e+003;6,006715e-004
2,310340e+003;8,132075e-004
2,312268e+003;8,481645e-004
2,314197e+003;1,147754e-003
2,316125e+003;1,409620e-003
2,318054e+003;1,214170e-003
2,319982e+003;1,684517e-003
2,321911e+003;2,076596e-003
2,323839e+003;1,446786e-003
2,325768e+003;3,211876e-004
2,327696e+003;2,460236e-004
2,329625e+003;-4,471455e-004
2,331553e+003;-1,023529e-003
2,333482e+003;-5,859114e-004
2,335410e+003;-3,897795e-004
2,337339e+003;-1,270024e-003
2,339267e+003;-9,476261e-004
2,341196e+003;-4,337729e-004
2,343124e+003;3,345838e-004
2,345053e+003;1,199882e-003
2,346981e+003;4,206083e-004
2,348910e+003;-3,398885e-004
2,350838e+003;-8,199901e-005
2,352767e+003;1,776964e-003
2,354695e+003;1,699020e-003
2,356624e+003;-2,647928e-004
2,358552e+003;-4,975538e-004
2,360481e+003;-1,291399e-003
2,362409e+003;-1,839445e-003
2,364338e+003;-2,847791e-003
2,366266e+003;-2,865467e-003
2,368195e+003;-1,343923e-003
2,370123e+003;-9,517257e-004
2,372052e+003;-1,650315e-003
2,373980e+003;-1,875770e-003
2,375909e+003;-1,195420e-003
2,377837e+003;-7,174879e-004
2,379766e+003;-1,038999e-003
2,381694e+003;-9,636938e-004
2,383623e+003;-6,607200e-004
2,385551e+003;-1,055857e-003
2,387479e+003;-1,280960e-003
2,389408e+003;-8,872510e-004
2,391337e+003;-3,091299e-004
2,393265e+003;-6,201576e-004
2,395194e+003;-9,535772e-004
2,397122e+003;-1,079391e-003
2,399051e+003;-1,227338e-003
2,400979e+003;-1,050667e-003
2,402907e+003;-1,219739e-003
2,404836e+003;-1,806087e-003
2,406765e+003;-1,259849e-003
2,408693e+003;-6,754751e-004
2,410622e+003;-5,797237e-004
2,412550e+003;-9,020645e-004
2,414479e+003;-1,023926e-003
2,416407e+003;-8,094388e-004
2,418335e+003;-7,674679e-004
2,420264e+003;-1,041644e-003
2,422193e+003;-9,763559e-004
2,424121e+003;-8,797118e-004
2,426050e+003;-8,936989e-004
2,427978e+003;-5,964006e-004
2,429906e+003;-3,027727e-004
2,431835e+003;-6,437809e-004
2,433763e+003;-7,444136e-004
2,435692e+003;-5,744954e-004
2,437621e+003;-5,722122e-004
2,439549e+003;-5,555674e-004
2,441478e+003;-5,870695e-004
2,443406e+003;-8,543817e-004
2,445334e+003;-1,141523e-003
2,447263e+003;-1,147769e-003
2,449191e+003;-8,100010e-004
2,451120e+003;-5,743962e-004
2,453049e+003;-5,315422e-004
2,454977e+003;-7,877097e-004
2,456906e+003;-1,086166e-003
2,458834e+003;-1,054700e-003
2,460762e+003;-5,678773e-004
2,462691e+003;-1,509325e-004
2,464619e+003;-3,252213e-004
2,466548e+003;-1,222217e-003
2,468477e+003;-1,585812e-003
2,470405e+003;-1,064980e-003
2,472333e+003;-6,367337e-004
2,474262e+003;-5,019887e-004
2,476190e+003;-2,326049e-004
2,478119e+003;-6,275359e-004
2,480047e+003;-9,248459e-004
2,481976e+003;-8,960135e-004
2,483905e+003;-8,851678e-004
2,485833e+003;-1,112705e-003
2,487761e+003;-9,386332e-004
2,489690e+003;-6,049043e-004
2,491618e+003;-8,826547e-004
2,493547e+003;-9,842570e-004
2,495475e+003;-8,714449e-004
2,497404e+003;-5,169477e-004
2,499333e+003;-4,810796e-005
2,501261e+003;-1,485476e-004
2,503189e+003;-3,185994e-004
2,505118e+003;-4,404593e-004
2,507046e+003;-9,119840e-004
2,508975e+003;-1,231039e-003
2,510903e+003;-9,480559e-004
2,512832e+003;-6,243265e-004
2,514760e+003;-5,556667e-004
2,516689e+003;-6,967466e-004
2,518617e+003;-8,602680e-004
2,520546e+003;-1,209760e-003
2,522474e+003;-1,113928e-003
2,524403e+003;-2,503549e-004
2,526331e+003;6,653825e-005
2,528260e+003;-8,134405e-004
2,530188e+003;-1,125859e-003
2,532117e+003;-9,126452e-004
2,534045e+003;-4,808400e-004
2,535974e+003;-5,226400e-004
2,537902e+003;-5,198270e-004
2,539831e+003;-5,754220e-004
2,541759e+003;-5,169477e-004
2,543688e+003;-2,126353e-004
2,545616e+003;-8,504675e-005
2,547545e+003;-3,428020e-004
2,549473e+003;-2,741639e-004
2,551402e+003;-2,290283e-004
2,553330e+003;-4,178511e-004
2,555259e+003;-1,010471e-004
2,557187e+003;-5,435219e-004
2,559116e+003;-8,451223e-004
2,561044e+003;-5,570234e-004
2,562973e+003;-3,891505e-004
2,564901e+003;-1,592793e-004
2,566830e+003;-3,101235e-005
2,568758e+003;-1,399025e-004
2,570687e+003;-6,274366e-004
2,572615e+003;-7,884043e-004
2,574544e+003;-4,741212e-004
2,576472e+003;-2,385989e-004
2,578401e+003;-5,427938e-004
2,580329e+003;-4,885516e-004
2,582258e+003;-3,834566e-004
2,584186e+003;-4,152691e-004
2,586115e+003;-7,381951e-004
2,588043e+003;-8,122168e-004
2,589972e+003;-2,274388e-004
2,591900e+003;-3,836552e-004
2,593829e+003;-5,444154e-004
2,595757e+003;-7,878560e-005
2,597686e+003;4,016031e-005
2,599614e+003;-2,251868e-004
2,601543e+003;-3,656127e-004
2,603471e+003;-2,618787e-004
2,605400e+003;-2,577395e-004
2,607328e+003;-3,525356e-004
2,609257e+003;-2,144899e-004
2,611185e+003;7,482310e-005
2,613114e+003;1,444668e-005
2,615042e+003;-2,385658e-004
2,616971e+003;-1,148274e-004
2,618899e+003;2,647491e-005
2,620828e+003;1,739223e-004
2,622756e+003;6,782530e-004
2,624685e+003;4,882725e-004
2,626613e+003;2,785146e-004
2,628542e+003;4,420342e-004
2,630470e+003;3,253656e-004
2,632399e+003;2,538478e-004
2,634327e+003;5,318339e-005
2,636256e+003;7,057608e-006
2,638184e+003;2,995420e-005
2,640113e+003;1,955680e-004
2,642041e+003;6,610744e-005
2,643970e+003;6,014245e-005
2,645898e+003;2,108831e-004
2,647827e+003;1,734251e-004
2,649755e+003;-2,856060e-005
2,651684e+003;-1,620284e-004
2,653612e+003;-1,591136e-004
2,655541e+003;3,127966e-005
2,657469e+003;9,142644e-005
2,659398e+003;-1,198293e-004
2,661326e+003;-4,091782e-004
2,663255e+003;-6,887410e-004
2,665183e+003;-9,016016e-004
2,667112e+003;-8,181036e-004
2,669040e+003;-5,243939e-004
2,670969e+003;-6,017940e-004
2,672897e+003;-6,819261e-004
2,674826e+003;-7,348873e-004
2,676754e+003;-8,145319e-004
2,678683e+003;-7,390882e-004
2,680611e+003;-6,281976e-004
2,682540e+003;-5,687046e-004
2,684468e+003;-1,250630e-004
2,686397e+003;-1,612003e-004
2,688325e+003;-5,862754e-004
2,690254e+003;-5,088726e-004
2,692182e+003;-5,366055e-004
2,694111e+003;-7,847330e-004
2,696039e+003;-7,403120e-004
2,697968e+003;-6,497030e-004
2,699896e+003;-6,390166e-004
2,701825e+003;-4,713409e-004
2,703753e+003;-5,084092e-004
2,705682e+003;-5,709879e-004
2,707610e+003;-6,335244e-004
2,709539e+003;-4,230150e-004
2,711467e+003;1,060302e-005
2,713396e+003;-2,547592e-004
2,715324e+003;-7,537083e-004
2,717253e+003;-7,281393e-004
2,719181e+003;-5,425953e-004
2,721110e+003;-3,698172e-004
2,723038e+003;-4,472779e-004
2,724967e+003;-5,049342e-004
2,726895e+003;-5,239637e-004
2,728823e+003;-7,156355e-004
2,730752e+003;-5,181722e-004
2,732681e+003;-6,597606e-004
2,734609e+003;-9,647187e-004
2,736538e+003;-7,165947e-004
2,738466e+003;-7,239052e-004
2,740395e+003;-5,394846e-004
2,742323e+003;-5,726424e-004
2,744251e+003;-1,040255e-003
2,746180e+003;-9,162824e-004
2,748109e+003;-1,754093e-004
2,750037e+003;-8,835949e-005
2,751966e+003;-4,815681e-004
2,753894e+003;-5,800877e-004
2,755823e+003;-1,962748e-004
2,757751e+003;-2,410495e-004
2,759679e+003;-6,736555e-004
2,761608e+003;-5,058278e-004
2,763537e+003;-2,230342e-004
2,765465e+003;-3,574023e-004
2,767394e+003;-3,085671e-004
2,769322e+003;-4,628015e-004
2,771250e+003;-5,889887e-004
2,773179e+003;-5,269091e-004
2,775107e+003;-4,559169e-004
2,777036e+003;-5,909410e-004
2,778965e+003;-6,501993e-004
2,780893e+003;-4,366196e-004
2,782822e+003;-2,404203e-004
2,784750e+003;-1,853454e-004
2,786678e+003;-3,319756e-004
2,788607e+003;-3,252213e-004
2,790535e+003;-1,168812e-004
2,792464e+003;-1,880612e-004
2,794393e+003;-3,537275e-004
2,796321e+003;-6,138048e-004
2,798250e+003;-6,708105e-004
2,800178e+003;-8,540180e-004
2,802106e+003;-8,686342e-004
2,804035e+003;-8,385745e-004
2,805963e+003;-6,964490e-004
2,807892e+003;-3,869657e-004
2,809821e+003;-3,528336e-004
2,811749e+003;-3,528336e-004
2,813677e+003;-1,979970e-004
2,815606e+003;-2,569778e-004
2,817534e+003;-1,144961e-004
2,819463e+003;2,075018e-004
2,821391e+003;1,416380e-004
2,823320e+003;8,459944e-005
2,825249e+003;5,186585e-004
2,827177e+003;4,339413e-004
2,829105e+003;1,806181e-004
2,831034e+003;3,774945e-004
2,832962e+003;1,974575e-004
2,834891e+003;8,917286e-005
2,836819e+003;1,003083e-004
2,838748e+003;4,655582e-005
2,840677e+003;2,488748e-004
2,842605e+003;4,791173e-004
2,844533e+003;8,835226e-004
2,846462e+003;9,710839e-004
2,848390e+003;1,040030e-003
2,850319e+003;9,891827e-004
2,852247e+003;6,893372e-004
2,854176e+003;3,463888e-004
2,856104e+003;2,454269e-004
2,858033e+003;5,884282e-004
2,859961e+003;1,075171e-003
2,861890e+003;1,187223e-003
2,863818e+003;1,241649e-003
2,865747e+003;1,362819e-003
2,867675e+003;1,611711e-003
2,869604e+003;1,766018e-003
2,871532e+003;1,341912e-003
2,873461e+003;9,528529e-004
2,875389e+003;1,130978e-003
2,877318e+003;1,605991e-003
2,879246e+003;1,445689e-003
2,881175e+003;1,472319e-003
2,883103e+003;1,844407e-003
2,885032e+003;2,106361e-003
2,886960e+003;1,967409e-003
2,888889e+003;1,639614e-003
2,890817e+003;1,614072e-003
2,892746e+003;1,658673e-003
2,894674e+003;1,869597e-003
2,896603e+003;2,273901e-003
2,898531e+003;2,897541e-003
2,900460e+003;2,976201e-003
2,902388e+003;2,721358e-003
2,904317e+003;2,414117e-003
2,906245e+003;2,471896e-003
2,908174e+003;2,534414e-003
2,910102e+003;2,548679e-003
2,912031e+003;2,731561e-003
2,913959e+003;2,820329e-003
2,915888e+003;3,070859e-003
2,917816e+003;3,007262e-003
2,919745e+003;3,175050e-003
2,921673e+003;3,584280e-003
2,923602e+003;3,395596e-003
2,925530e+003;3,313053e-003
2,927459e+003;3,864669e-003
2,929387e+003;4,395966e-003
2,931316e+003;4,250725e-003
2,933244e+003;3,907495e-003
2,935173e+003;4,079144e-003
2,937101e+003;4,336759e-003
2,939030e+003;4,605010e-003
2,940958e+003;5,043009e-003
2,942887e+003;4,736836e-003
2,944815e+003;3,894858e-003
2,946744e+003;3,492182e-003
2,948672e+003;3,666173e-003
2,950601e+003;3,278766e-003
2,952529e+003;3,741429e-003
2,954458e+003;5,070095e-003
2,956386e+003;5,447797e-003
2,958315e+003;5,552291e-003
2,960243e+003;5,949290e-003
2,962172e+003;5,696961e-003
2,964100e+003;5,064430e-003
2,966029e+003;4,768492e-003
2,967957e+003;4,750771e-003
2,969886e+003;4,633174e-003
2,971814e+003;4,394359e-003
2,973743e+003;3,771676e-003
2,975671e+003;3,157494e-003
2,977600e+003;3,128759e-003
2,979528e+003;3,201286e-003
2,981457e+003;3,056044e-003
2,983385e+003;3,149851e-003
2,985314e+003;3,011600e-003
2,987242e+003;2,279497e-003
2,989171e+003;2,108325e-003
2,991099e+003;2,087084e-003
2,993028e+003;2,133664e-003
2,994956e+003;2,709988e-003
2,996885e+003;2,731861e-003
2,998813e+003;2,208856e-003
3,000742e+003;2,581776e-003
3,002670e+003;2,899509e-003
3,004599e+003;2,808357e-003
3,006527e+003;3,036724e-003
3,008456e+003;3,395496e-003
3,010384e+003;3,677935e-003
3,012313e+003;3,573055e-003
3,014241e+003;3,245782e-003
3,016170e+003;2,775309e-003
3,018098e+003;2,456301e-003
3,020027e+003;1,788908e-003
3,021955e+003;1,356104e-003
3,023884e+003;1,351418e-003
3,025812e+003;1,147422e-003
3,027741e+003;9,117781e-004
3,029669e+003;9,420941e-004
3,031598e+003;6,605985e-004
3,033526e+003;4,751369e-004
3,035455e+003;5,029676e-004
3,037383e+003;1,323666e-003
3,039312e+003;1,537587e-003
3,041240e+003;6,385646e-004
3,043169e+003;-8,229716e-005
3,045097e+003;-3,686585e-004
3,047026e+003;-4,899416e-004
3,048954e+003;-4,973552e-004
3,050883e+003;-2,683849e-006
3,052811e+003;8,261102e-005
3,054740e+003;-5,721872e-005
3,056668e+003;-3,273403e-004
3,058597e+003;-4,668396e-004
3,060525e+003;-5,893196e-004
3,062454e+003;-4,102044e-004
3,064382e+003;-2,907533e-004
3,066311e+003;-3,428682e-004
3,068239e+003;-6,550958e-004
3,070167e+003;-1,053147e-003
3,072096e+003;-8,471065e-004
3,074025e+003;-8,488592e-004
3,075953e+003;-4,934830e-004
3,077882e+003;5,556934e-005
3,079810e+003;1,927835e-004
3,081739e+003;-7,494744e-004
3,083667e+003;-9,083799e-004
3,085595e+003;-8,327211e-004
3,087524e+003;-1,025215e-003
3,089453e+003;-1,152825e-003
3,091381e+003;-1,042536e-003
3,093310e+003;-1,067359e-003
3,095238e+003;-1,094991e-003
3,097167e+003;-9,745045e-004
3,099095e+003;-9,863398e-004
3,101023e+003;-1,094825e-003
3,102952e+003;-1,474708e-003
3,104881e+003;-1,581586e-003
3,106809e+003;-1,720221e-003
3,108738e+003;-1,954546e-003
3,110666e+003;-1,915523e-003
3,112594e+003;-2,252136e-003
3,114523e+003;-2,166128e-003
3,116451e+003;-1,562669e-003
3,118380e+003;-1,443733e-003
3,120309e+003;-1,728175e-003
3,122237e+003;-1,945574e-003
3,124166e+003;-1,743686e-003
3,126094e+003;-1,901040e-003
3,128022e+003;-1,349934e-003
3,129951e+003;-1,319313e-003
3,131879e+003;-1,686458e-003
3,133808e+003;-1,642756e-003
3,135737e+003;-1,081208e-003
3,137665e+003;-1,061377e-003
3,139594e+003;-1,632721e-003
3,141522e+003;-1,117299e-003
3,143450e+003;-7,186126e-004
3,145379e+003;-9,114880e-004
3,147307e+003;-1,181211e-003
3,149236e+003;-8,690971e-004
3,151165e+003;-6,227714e-004
3,153093e+003;-8,958151e-004
3,155021e+003;-1,056419e-003
3,156950e+003;-1,256281e-003
3,158878e+003;-1,332130e-003
3,160807e+003;-1,185969e-003
3,162735e+003;-1,276929e-003
3,164664e+003;-1,334277e-003
3,166593e+003;-1,425999e-003
3,168521e+003;-1,527837e-003
3,170449e+003;-1,756853e-003
3,172378e+003;-2,106417e-003
3,174306e+003;-2,026382e-003
3,176235e+003;-1,781339e-003
3,178163e+003;-1,736063e-003
3,180092e+003;-1,552798e-003
3,182021e+003;-1,171463e-003
3,183949e+003;-1,443336e-003
3,185877e+003;-1,719627e-003
3,187806e+003;-1,854490e-003
3,189734e+003;-1,681210e-003
3,191663e+003;-9,184976e-004
3,193591e+003;-8,120184e-004
3,195520e+003;-1,321758e-003
3,197448e+003;-1,398653e-003
3,199377e+003;-1,373452e-003
3,201305e+003;-9,484196e-004
3,203234e+003;-9,712977e-004
3,205162e+003;-1,400766e-003
3,207091e+003;-1,411038e-003
3,209019e+003;-1,113366e-003
3,210948e+003;-1,339133e-003
3,212876e+003;-1,753223e-003
3,214805e+003;-2,248774e-003
3,216733e+003;-2,218644e-003
3,218662e+003;-2,001448e-003
3,220590e+003;-2,339116e-003
3,222519e+003;-2,101668e-003
3,224447e+003;-1,982516e-003
3,226376e+003;-1,931719e-003
3,228304e+003;-1,749461e-003
3,230233e+003;-1,965200e-003
3,232161e+003;-2,555484e-003
3,234090e+003;-2,714092e-003
3,236018e+003;-2,007319e-003
3,237947e+003;-1,399511e-003
3,239875e+003;-1,128139e-003
3,241804e+003;-1,385937e-003
3,243732e+003;-1,857228e-003
3,245661e+003;-1,756391e-003
3,247589e+003;-1,579936e-003
3,249518e+003;-1,576436e-003
3,251446e+003;-2,231534e-003
3,253375e+003;-2,579200e-003
3,255303e+003;-1,883820e-003
3,257232e+003;-1,585779e-003
3,259160e+003;-1,646882e-003
3,261089e+003;-1,860825e-003
3,263017e+003;-2,202623e-003
3,264946e+003;-2,024271e-003
3,266874e+003;-1,994027e-003
3,268803e+003;-2,042344e-003
3,270731e+003;-1,334178e-003
3,272660e+003;-1,035198e-003
3,274588e+003;-1,277821e-003
3,276517e+003;-1,362585e-003
3,278445e+003;-1,549562e-003
3,280374e+003;-2,173183e-003
3,282302e+003;-2,228336e-003
3,284231e+003;-2,365051e-003
3,286159e+003;-2,875803e-003
3,288088e+003;-2,598962e-003
3,290016e+003;-1,663254e-003
3,291945e+003;-1,862936e-003
3,293873e+003;-2,162303e-003
3,295802e+003;-1,844955e-003
3,297730e+003;-1,909915e-003
3,299659e+003;-2,076112e-003
3,301587e+003;-1,766225e-003
3,303516e+003;-1,623941e-003
3,305444e+003;-2,172590e-003
3,307373e+003;-2,632391e-003
3,309301e+003;-2,225501e-003
3,311230e+003;-1,579275e-003
3,313158e+003;-1,156130e-003
3,315087e+003;-1,208967e-003
3,317015e+003;-1,817273e-003
3,318944e+003;-2,000393e-003
3,320872e+003;-1,741013e-003
3,322801e+003;-2,334337e-003
3,324729e+003;-3,067229e-003
3,326658e+003;-2,784716e-003
3,328586e+003;-2,081521e-003
3,330515e+003;-2,037991e-003
3,332443e+003;-2,982008e-003
3,334372e+003;-2,670823e-003
3,336300e+003;-2,313870e-003
3,338229e+003;-1,781702e-003
3,340157e+003;-1,636584e-003
3,342086e+003;-2,197216e-003
3,344014e+003;-2,251773e-003
3,345943e+003;-2,166227e-003
3,347871e+003;-2,401365e-003
3,349800e+003;-2,783893e-003
3,351728e+003;-3,150658e-003
3,353657e+003;-3,204437e-003
3,355585e+003;-3,156579e-003
3,357514e+003;-3,149901e-003
3,359442e+003;-2,318715e-003
3,361371e+003;-1,552864e-003
3,363299e+003;-1,890748e-003
3,365228e+003;-2,180073e-003
3,367156e+003;-2,587961e-003
3,369085e+003;-2,401662e-003
3,371013e+003;-2,193162e-003
3,372942e+003;-2,792025e-003
3,374870e+003;-2,800552e-003
3,376799e+003;-2,711722e-003
3,378727e+003;-2,663183e-003
3,380656e+003;-2,721435e-003
3,382584e+003;-2,882616e-003
3,384513e+003;-2,266079e-003
3,386441e+003;-1,607699e-003
3,388370e+003;-2,875408e-003
3,390298e+003;-3,503571e-003
3,392227e+003;-3,115920e-003
3,394155e+003;-3,165000e-003
3,396083e+003;-3,510243e-003
3,398012e+003;-3,707665e-003
3,399941e+003;-3,645340e-003
3,401869e+003;-2,919841e-003
3,403798e+003;-2,945479e-003
3,405726e+003;-3,420901e-003
3,407655e+003;-2,451811e-003
3,409583e+003;-1,396407e-003
3,411511e+003;-1,254860e-003
3,413440e+003;-1,741838e-003
3,415369e+003;-1,957746e-003
3,417297e+003;-2,635553e-003
3,419226e+003;-2,798445e-003
3,421154e+003;-3,141842e-003
3,423083e+003;-2,997836e-003
3,425011e+003;-2,197942e-003
3,426939e+003;-1,762100e-003
3,428868e+003;-1,685006e-003
3,430797e+003;-2,179810e-003
3,432725e+003;-2,765621e-003
3,434654e+003;-3,418008e-003
3,436582e+003;-3,186182e-003
3,438510e+003;-2,662624e-003
3,440439e+003;-2,095931e-003
3,442367e+003;-1,705997e-003
3,444296e+003;-1,903713e-003
3,446225e+003;-1,361066e-003
3,448153e+003;-1,426989e-003
3,450082e+003;-1,719462e-003
3,452010e+003;-1,644044e-003
3,453938e+003;-1,793713e-003
3,455867e+003;-2,843874e-003
3,457795e+003;-2,678233e-003
3,459724e+003;-1,981659e-003
3,461653e+003;-2,181623e-003
3,463581e+003;-2,246202e-003
3,465510e+003;-2,254344e-003
3,467438e+003;-1,894344e-003
3,469366e+003;-1,079093e-003
3,471295e+003;-8,946909e-004
3,473223e+003;-1,458098e-003
3,475152e+003;-1,676358e-003
3,477081e+003;-1,630741e-003
3,479009e+003;-1,244155e-003
3,480938e+003;-1,532690e-003
3,482866e+003;-2,854638e-003
3,484794e+003;-3,196971e-003
3,486723e+003;-2,399717e-003
3,488651e+003;-2,414546e-003
3,490580e+003;-2,246170e-003
3,492509e+003;-1,632358e-003
3,494437e+003;-1,398322e-003
3,496365e+003;-1,581289e-003
3,498294e+003;-1,908892e-003
3,500222e+003;-2,209282e-003
3,502151e+003;-2,999580e-003
3,504079e+003;-2,578278e-003
3,506008e+003;-2,402551e-003
3,507937e+003;-1,832021e-003
3,509865e+003;-1,062765e-003
3,511793e+003;-1,329025e-003
3,513722e+003;-1,275806e-003
3,515650e+003;-1,689659e-003
3,517579e+003;-1,824400e-003
3,519507e+003;-2,369599e-003
3,521436e+003;-2,826295e-003
3,523365e+003;-1,627770e-003
3,525293e+003;-1,374013e-003
3,527221e+003;-1,995940e-003
3,529150e+003;-2,220194e-003
3,531078e+003;-2,207469e-003
3,533007e+003;-1,970840e-003
3,534935e+003;-1,233418e-003
3,536864e+003;-1,663155e-003
3,538792e+003;-1,735304e-003
3,540721e+003;-1,589543e-003
3,542649e+003;-2,557790e-003
3,544578e+003;-3,529240e-003
3,546506e+003;-3,025969e-003
3,548435e+003;-1,698208e-003
3,550363e+003;-1,513870e-003
3,552292e+003;-2,260179e-003
3,554220e+003;-2,450723e-003
3,556149e+003;-2,494904e-003
3,558077e+003;-2,135202e-003
3,560006e+003;-5,854151e-004
3,561934e+003;-2,010771e-004
3,563863e+003;-1,269727e-003
3,565791e+003;-2,520237e-003
3,567720e+003;-3,080718e-003
3,569648e+003;-4,058682e-003
3,571577e+003;-3,564208e-003
3,573505e+003;-2,089500e-003
3,575434e+003;-2,150038e-003
3,577362e+003;-2,498297e-003
3,579291e+003;-2,028229e-003
3,581219e+003;-1,506177e-003
3,583148e+003;-1,700782e-003
3,585076e+003;-2,246367e-003
3,587005e+003;-2,248048e-003
3,588933e+003;-2,389898e-003
3,590862e+003;-2,270067e-003
3,592790e+003;-2,152610e-003
3,594719e+003;-1,813544e-003
3,596647e+003;-1,642162e-003
3,598576e+003;-1,855018e-003
3,600504e+003;-1,771637e-003
3,602433e+003;-1,377911e-003
3,604361e+003;-1,716426e-003
3,606290e+003;-1,340884e-003
3,608218e+003;-2,095898e-003
3,610147e+003;-2,419323e-003
3,612075e+003;-9,300038e-004
3,614004e+003;-8,189966e-004
3,615932e+003;-1,648302e-003
3,617861e+003;-1,714347e-003
3,619789e+003;-1,631071e-003
3,621718e+003;-1,056452e-003
3,623646e+003;-4,329454e-004
3,625575e+003;-1,822652e-004
3,627503e+003;3,352139e-004
3,629432e+003;-7,196117e-005
3,631360e+003;-9,582718e-004
3,633289e+003;-1,473321e-003
3,635217e+003;-2,043399e-003
3,637146e+003;-2,659330e-003
3,639074e+003;-2,096755e-003
3,641003e+003;-1,661076e-003
3,642931e+003;-1,970774e-003
3,644860e+003;-2,134081e-003
3,646788e+003;-3,186018e-003
3,648717e+003;-3,159506e-003
3,650645e+003;-7,259561e-004
3,652574e+003;-1,285882e-003
3,654502e+003;-2,217062e-003
3,656431e+003;-1,700947e-003
3,658359e+003;-7,571151e-004
3,660288e+003;-8,558698e-004
3,662216e+003;-1,714974e-003
3,664145e+003;-1,716822e-003
3,666073e+003;-1,139408e-003
3,668002e+003;-1,298865e-003
3,669930e+003;-1,348877e-003
3,671859e+003;-1,098395e-003
3,673787e+003;-2,027833e-003
3,675716e+003;-1,852153e-005
3,677644e+003;-1,593124e-004
3,679573e+003;-1,269760e-003
3,681501e+003;-1,581818e-003
3,683430e+003;-1,864091e-003
3,685358e+003;-2,264859e-003
3,687287e+003;-1,978723e-003
3,689215e+003;-2,633182e-003
3,691144e+003;-2,266606e-003
3,693072e+003;-3,292937e-004
3,695001e+003;-3,424047e-004
3,696929e+003;-6,137387e-004
3,698858e+003;-6,449058e-004
3,700786e+003;-9,001137e-004
3,702715e+003;-4,359576e-004
3,704643e+003;-3,874291e-004
3,706572e+003;-1,079457e-003
3,708500e+003;-1,736954e-003
3,710429e+003;-1,804074e-003
3,712357e+003;-6,362374e-004
3,714286e+003;-3,455499e-004
3,716214e+003;-5,128108e-004
3,718143e+003;-6,520521e-004
3,720071e+003;-6,776917e-004
3,722000e+003;-1,079952e-003
3,723928e+003;-5,307479e-004
3,725857e+003;-3,424378e-004
3,727785e+003;-1,046073e-003
3,729714e+003;-1,069310e-003
3,731642e+003;-1,160530e-004
3,733571e+003;-8,326880e-004
3,735499e+003;-4,587304e-004
3,737427e+003;8,007592e-004
3,739356e+003;-1,157549e-004
3,741285e+003;-3,215462e-004
3,743213e+003;-1,454560e-005
3,745142e+003;-3,360148e-004
3,747070e+003;-5,217464e-004
3,748999e+003;-1,568711e-003
3,750927e+003;-1,783748e-003
3,752855e+003;-1,733026e-003
3,754784e+003;-1,140796e-003
3,756713e+003;-1,154577e-003
3,758641e+003;-1,061641e-003
3,760570e+003;-1,072417e-003
3,762498e+003;-5,870695e-004
3,764427e+003;-6,189995e-004
3,766355e+003;-9,236556e-004
3,768283e+003;-6,429537e-004
3,770212e+003;-1,172124e-003
3,772141e+003;-1,188877e-003
3,774069e+003;-1,076912e-003
3,775998e+003;-1,132634e-003
3,777926e+003;-6,112800e-005
3,779854e+003;1,017113e-003
3,781783e+003;2,144965e-004
3,783711e+003;-1,191668e-004
3,785640e+003;-8,121176e-004
3,787569e+003;-1,958471e-003
3,789497e+003;-2,082807e-003
3,791426e+003;-1,236424e-003
3,793354e+003;-5,461031e-004
3,795282e+003;-8,097695e-004
3,797211e+003;-1,207976e-003
3,799139e+003;-1,191488e-003
3,801068e+003;-1,776851e-003
3,802997e+003;-2,791038e-003
3,804925e+003;-2,426078e-003
3,806854e+003;-1,736228e-003
3,808782e+003;-1,190827e-003
3,810710e+003;-7,898264e-004
3,812639e+003;-3,964004e-004
3,814567e+003;-9,284829e-004
3,816496e+003;-1,851719e-003
3,818425e+003;-1,634768e-003
3,820353e+003;-1,433792e-003
3,822281e+003;-9,342689e-004
3,824210e+003;-2,908195e-004
3,826138e+003;-6,525483e-004
3,828067e+003;-1,241380e-003
3,829995e+003;-1,270751e-003
3,831924e+003;-1,928718e-003
3,833853e+003;-1,783352e-003
3,835781e+003;-1,770977e-003
3,837709e+003;-1,284428e-003
3,839638e+003;-4,816674e-004
3,841566e+003;-1,183557e-003
3,843495e+003;-1,334145e-003
3,845423e+003;-1,500762e-003
3,847352e+003;-1,156791e-003
3,849281e+003;-3,634939e-004
3,851209e+003;-1,124834e-003
3,853137e+003;-1,344055e-003
3,855066e+003;-2,020973e-003
3,856994e+003;-2,837586e-003
3,858923e+003;-1,985881e-003
3,860851e+003;-7,059430e-004
3,862780e+003;-1,058997e-003
3,864708e+003;-2,091446e-003
3,866637e+003;-1,650876e-003
3,868565e+003;-1,202227e-003
3,870494e+003;-1,816844e-003
3,872422e+003;-1,964606e-003
3,874351e+003;-9,867365e-004
3,876279e+003;-2,043889e-004
3,878208e+003;-3,595212e-004
3,880136e+003;-1,390744e-004
3,882065e+003;-7,729915e-004
3,883993e+003;-1,709462e-003
3,885922e+003;-1,289747e-003
3,887850e+003;-1,091124e-003
3,889779e+003;-8,622190e-004
3,891707e+003;-3,141296e-004
3,893636e+003;-3,686585e-004
3,895564e+003;-4,726317e-004
3,897493e+003;-5,987830e-004
3,899421e+003;-8,525299e-004
3,901350e+003;-9,005104e-004
3,903278e+003;-2,058998e-003
3,905207e+003;-2,308795e-003
3,907135e+003;-8,679728e-004
3,909064e+003;-8,502481e-004
3,910992e+003;-1,157254e-003
3,912921e+003;-1,366450e-003
3,914849e+003;-5,407752e-004
3,916778e+003;-1,259905e-004
3,918706e+003;-7,577105e-004
3,920635e+003;-3,002894e-004
3,922563e+003;-7,848745e-005
3,924492e+003;-8,729661e-004
3,926420e+003;-7,563875e-004
3,928349e+003;-8,043125e-004
3,930277e+003;-1,634867e-003
3,932206e+003;-1,352445e-003
3,934134e+003;-1,231006e-003
3,936063e+003;-1,529488e-003
3,937991e+003;-1,102625e-003
3,939920e+003;-8,798110e-004
3,941848e+003;-1,131080e-003
3,943777e+003;-1,418039e-003
3,945705e+003;-1,176783e-003
3,947634e+003;-8,455853e-004
3,949562e+003;-1,534771e-003
3,951491e+003;-1,957679e-003
3,953419e+003;-1,431778e-003
3,955348e+003;-9,547013e-004
3,957276e+003;-2,196563e-004
3,959205e+003;-3,524363e-004
3,961133e+003;-9,658097e-004
3,963062e+003;-1,663551e-003
3,964990e+003;-1,129990e-003
3,966919e+003;-1,114060e-003
3,968847e+003;-1,170538e-003
3,970776e+003;-1,324070e-003
3,972704e+003;-1,486893e-003
3,974633e+003;-1,634504e-003
3,976561e+003;-1,631269e-003
3,978490e+003;-1,474642e-003
3,980418e+003;-1,436005e-003
3,982347e+003;-1,258395e-003
3,984275e+003;-1,209661e-003
3,986204e+003;-8,920456e-004
3,988132e+003;-6,593967e-004
3,990061e+003;-1,494323e-003
3,991989e+003;-1,564320e-003
3,993918e+003;-9,203161e-004
3,995846e+003;-7,714370e-004
3,997775e+003;-3,506154e-004
3,999703e+003;3,578491e-006
4,001632e+003;-3,309492e-004
4,003560e+003;-6,686931e-004
4,005489e+003;-3,559456e-004
4,007417e+003;-4,419157e-004
4,009346e+003;-7,199027e-004
4,011274e+003;-7,022381e-004
4,013203e+003;-6,933062e-004
4,015131e+003;-6,822239e-004
4,017060e+003;-6,112902e-004
4,018988e+003;-3,306512e-004
4,020917e+003;-1,211743e-003
4,022845e+003;-1,600569e-003
4,024774e+003;-1,139210e-003
4,026702e+003;-1,846308e-003
4,028631e+003;-2,086862e-003
4,030559e+003;-1,721277e-003
4,032488e+003;-7,776881e-004
4,034416e+003;-9,857446e-004
4,036345e+003;-1,227900e-003
4,038273e+003;-1,305076e-003
4,040202e+003;-1,246997e-003
4,042130e+003;-6,319363e-004
4,044059e+003;-7,505660e-004
4,045987e+003;-1,371602e-003
4,047916e+003;-1,661604e-003
4,049844e+003;-1,417115e-003
4,051773e+003;-1,052221e-003
4,053701e+003;-1,311517e-003
4,055630e+003;-1,396671e-003
4,057558e+003;-1,312310e-003
4,059487e+003;-9,930506e-004
4,061415e+003;-9,022298e-004
4,063344e+003;-1,126652e-003
4,065272e+003;-1,004456e-003
4,067201e+003;-6,030183e-004
4,069129e+003;-6,318701e-004
4,071058e+003;-8,476687e-004
4,072986e+003;-8,371855e-004
4,074915e+003;-4,562810e-004
4,076843e+003;-5,239306e-004
4,078771e+003;-6,010661e-004
4,080700e+003;-4,123230e-004
4,082629e+003;-5,481879e-004
4,084557e+003;-9,957283e-004
4,086486e+003;-5,098985e-004
4,088414e+003;4,682043e-004
4,090343e+003;-8,474041e-004
4,092271e+003;-1,904339e-003
4,094199e+003;-9,579743e-004
4,096128e+003;-9,539408e-004
4,098057e+003;-1,405390e-003
4,099985e+003;-9,120501e-004
4,101914e+003;-1,525262e-003
4,103842e+003;-2,198206e-003
4,105771e+003;-1,642261e-003
4,107699e+003;-1,668205e-003
4,109627e+003;-1,153817e-003
4,111556e+003;-5,607959e-004
4,113484e+003;-7,934976e-004
4,115413e+003;-1,388876e-003
4,117341e+003;-1,544444e-003
4,119270e+003;-6,458983e-004
4,121199e+003;-1,975002e-004
4,123127e+003;-7,449429e-004
4,125056e+003;-6,963828e-004
4,126984e+003;-6,881395e-005
4,128913e+003;-2,739321e-004
4,130841e+003;-8,687996e-004
4,132770e+003;-1,071227e-003
4,134698e+003;-1,037809e-003
4,136626e+003;-9,060985e-004
4,138555e+003;-7,644580e-004
4,140483e+003;-2,731043e-004
4,142412e+003;-6,222127e-005
4,144340e+003;-6,748465e-004
4,146269e+003;-9,268628e-004
4,148197e+003;-1,144531e-003
4,150126e+003;-1,355021e-003
4,152055e+003;-1,619451e-003
4,153983e+003;-1,256248e-003
4,155912e+003;-9,372446e-004
4,157840e+003;-4,206979e-004
4,159769e+003;-4,116941e-004
4,161697e+003;-1,076912e-003
4,163625e+003;-1,064253e-003
4,165554e+003;-1,357003e-003
4,167482e+003;-2,013816e-003
4,169411e+003;-2,281010e-003
4,171339e+003;-2,251971e-003
4,173268e+003;-1,527111e-003
4,175196e+003;-8,046101e-004
4,177125e+003;-9,372115e-004
4,179053e+003;-8,156232e-004
4,180982e+003;-8,849694e-004
4,182911e+003;-9,468656e-004
4,184839e+003;-7,185795e-004
4,186768e+003;-9,641236e-004
4,188696e+003;-1,400403e-003
4,190625e+003;-2,451227e-004
4,192553e+003;1,781320e-004
4,194481e+003;-4,408565e-004
4,196410e+003;-1,374542e-003
4,198338e+003;-2,624553e-003
4,200267e+003;-2,082840e-003
4,202195e+003;-9,694794e-004
4,204124e+003;-3,699496e-004
4,206052e+003;6,136858e-005
4,207981e+003;-9,047097e-004
4,209909e+003;-1,333716e-003
4,211838e+003;-5,864408e-004
4,213767e+003;-3,439177e-005
4,215695e+003;-4,538979e-004
4,217624e+003;-1,386994e-003
4,219552e+003;-1,476723e-003
4,221480e+003;-1,141259e-003
4,223409e+003;-1,080746e-003
4,225337e+003;-9,068589e-004
4,227266e+003;-3,270092e-004
4,229194e+003;-7,812602e-004
4,231123e+003;-7,579420e-004
4,233051e+003;-5,173449e-004
4,234980e+003;-6,728616e-004
4,236908e+003;-1,184879e-003
4,238837e+003;-1,134914e-003
4,240765e+003;-3,746175e-004
4,242694e+003;-1,361264e-004
4,244623e+003;-2,727400e-004
4,246551e+003;-1,235235e-003
4,248479e+003;-1,342866e-003
4,250408e+003;-1,034107e-003
4,252336e+003;-2,014278e-003
4,254265e+003;-2,057514e-003
4,256193e+003;-1,102427e-003
4,258122e+003;-7,258569e-004
4,260050e+003;-1,396109e-003
4,261979e+003;-1,270883e-003
4,263907e+003;-7,198696e-004
4,265836e+003;-7,125590e-004
4,267764e+003;-6,578417e-004
4,269693e+003;-2,798262e-004
4,271621e+003;1,337827e-004
4,273550e+003;4,264560e-005
4,275479e+003;-2,716142e-004
4,277407e+003;-3,933548e-004
4,279335e+003;-7,967057e-004
4,281264e+003;-1,055163e-003
4,283192e+003;-1,207546e-003
4,285121e+003;-1,331965e-003
4,287049e+003;-1,587232e-003
4,288978e+003;-1,601757e-003
4,290906e+003;-1,396671e-003
4,292835e+003;-1,373650e-003
4,294763e+003;-1,637442e-003
4,296692e+003;-1,706525e-003
4,298620e+003;-2,096986e-003
4,300549e+003;-1,899589e-003
4,302477e+003;-1,260873e-003
4,304406e+003;-7,495406e-004
4,306334e+003;-5,862423e-004
4,308263e+003;-3,500525e-004
4,310191e+003;-6,234000e-004
4,312120e+003;-1,725337e-003
4,314048e+003;-1,840666e-003
4,315977e+003;-1,351949e-003
4,317905e+003;-8,928061e-004
4,319834e+003;-6,448727e-004
4,321762e+003;-6,737548e-004
4,323691e+003;-5,866394e-004
4,325619e+003;-1,323542e-003
4,327548e+003;-1,382403e-003
4,329476e+003;-1,231766e-003
4,331405e+003;-1,013546e-003
4,333333e+003;-1,082332e-003
4,335262e+003;-1,446177e-003
4,337190e+003;-1,967839e-003
4,339119e+003;-2,609831e-003
4,341047e+003;-2,027569e-003
4,342976e+003;-1,338208e-003
4,344904e+003;-1,293216e-003
4,346833e+003;-1,013646e-003
4,348761e+003;3,920532e-004
4,350690e+003;4,306246e-004
4,352618e+003;-3,135667e-004
4,354547e+003;-7,240376e-004
4,356475e+003;-8,287526e-004
4,358404e+003;-1,326845e-003
4,360332e+003;-1,862111e-003
4,362261e+003;-1,830042e-003
4,364189e+003;-8,615576e-004
4,366118e+003;-6,337891e-004
4,368046e+003;-1,200905e-003
4,369975e+003;-1,487950e-003
4,371903e+003;-1,066864e-003
4,373832e+003;-4,318200e-004
4,375760e+003;-6,792796e-004
4,377688e+003;-8,001784e-004
4,379617e+003;-1,179096e-003
4,381546e+003;-1,849013e-003
4,383474e+003;-1,622290e-003
4,385403e+003;-1,612453e-003
4,387331e+003;-2,021171e-003
4,389260e+003;-1,571682e-003
4,391188e+003;-1,574686e-003
4,393117e+003;-9,638591e-004
4,395045e+003;-3,596536e-004
4,396974e+003;-3,124741e-004
4,398902e+003;-9,405735e-005
4,400831e+003;2,307736e-004
4,402759e+003;-2,077670e-004
4,404688e+003;-1,416124e-003
4,406616e+003;-1,827105e-003
4,408544e+003;-1,522752e-003
4,410473e+003;-1,410575e-003
4,412402e+003;-1,070103e-003
4,414330e+003;-1,345475e-003
4,416259e+003;-1,489667e-003
4,418187e+003;-1,191719e-003
4,420116e+003;-9,622392e-004
4,422044e+003;-1,244222e-003
4,423973e+003;-1,919019e-003
4,425901e+003;-1,721046e-003
4,427830e+003;-1,518658e-003
4,429758e+003;-5,832973e-004
4,431687e+003;5,096314e-005
4,433615e+003;-9,054372e-004
4,435543e+003;-1,917271e-003
4,437472e+003;-1,382535e-003
4,439400e+003;-5,597039e-004
4,441329e+003;-9,038831e-004
4,443258e+003;-1,422729e-003
4,445186e+003;-1,198262e-003
4,447115e+003;-4,727970e-005
4,449043e+003;4,679390e-004
4,450972e+003;2,233146e-004
4,452900e+003;-3,718697e-004
4,454829e+003;-1,092710e-003
4,456757e+003;-1,843371e-003
4,458686e+003;-1,927497e-003
4,460614e+003;-1,257834e-003
4,462542e+003;-7,811941e-004
4,464471e+003;-9,572800e-004
4,466399e+003;-8,857961e-004
4,468328e+003;-1,586505e-003
4,470256e+003;-2,273198e-003
4,472185e+003;-1,156130e-003
4,474113e+003;-9,018992e-004
4,476042e+003;-2,325768e-003
4,477971e+003;-2,210568e-003
4,479899e+003;-2,057876e-003
4,481828e+003;-1,996798e-003
4,483756e+003;-9,878605e-004
4,485685e+003;-9,983730e-004
4,487613e+003;-1,569569e-003
4,489542e+003;-1,938086e-003
4,491470e+003;-1,649061e-003
4,493398e+003;-1,097370e-003
4,495327e+003;-7,086887e-004
4,497255e+003;-5,450772e-004
4,499184e+003;-1,233418e-003
