5,245513e+002;9,483367e-002
5,264797e+002;1,651416e-001
5,284083e+002;6,099493e-002
5,303367e+002;-1,321527e-002
5,322653e+002;-7,402880e-002
5,341937e+002;-4,034526e-002
5,361223e+002;-1,505053e-002
5,380507e+002;-1,695336e-003
5,399792e+002;4,177954e-002
5,419077e+002;7,608630e-003
5,438362e+002;-1,697777e-002
5,457647e+002;2,545175e-002
5,476932e+002;2,462356e-002
5,496217e+002;3,306102e-002
5,515502e+002;2,775342e-002
5,534787e+002;2,574424e-002
5,554072e+002;2,834739e-002
5,573357e+002;3,448414e-002
5,592642e+002;3,595168e-002
5,611927e+002;4,004565e-002
5,631212e+002;1,728572e-002
5,650497e+002;-3,853899e-003
5,669782e+002;1,630901e-003
5,689067e+002;2,112037e-002
5,708352e+002;1,800832e-002
5,727637e+002;1,721011e-002
5,746922e+002;3,168418e-002
5,766207e+002;2,681261e-002
5,785492e+002;1,543166e-002
5,804777e+002;2,412095e-002
5,824062e+002;2,558177e-002
5,843347e+002;2,115032e-002
5,862632e+002;1,761067e-002
5,881917e+002;8,833569e-003
5,901202e+002;1,196268e-002
5,920486e+002;2,318134e-002
5,939772e+002;2,560918e-002
5,959056e+002;2,144121e-002
5,978342e+002;2,372467e-002
5,997626e+002;2,311448e-002
6,016912e+002;2,214444e-002
6,036196e+002;2,403476e-002
6,055482e+002;2,727897e-002
6,074766e+002;3,070243e-002
6,094052e+002;2,589125e-002
6,113336e+002;2,374591e-002
6,132621e+002;2,318190e-002
6,151906e+002;1,934360e-002
6,171191e+002;2,166479e-002
6,190476e+002;2,220811e-002
6,209761e+002;2,401627e-002
6,229046e+002;2,314129e-002
6,248331e+002;2,539256e-002
6,267616e+002;3,156162e-002
6,286901e+002;3,097474e-002
6,306186e+002;2,244422e-002
6,325471e+002;1,971489e-002
6,344756e+002;2,439285e-002
6,364041e+002;2,770132e-002
6,383326e+002;2,984341e-002
6,402611e+002;2,730307e-002
6,421896e+002;2,155262e-002
6,441181e+002;1,912859e-002
6,460466e+002;1,988021e-002
6,479751e+002;1,966937e-002
6,499036e+002;2,009934e-002
6,518321e+002;2,189123e-002
6,537606e+002;2,328816e-002
6,556891e+002;2,295652e-002
6,576176e+002;2,270997e-002
6,595461e+002;2,347709e-002
6,614745e+002;2,364272e-002
6,634031e+002;2,350828e-002
6,653315e+002;2,414666e-002
6,672601e+002;2,323185e-002
6,691885e+002;2,289571e-002
6,711171e+002;2,406330e-002
6,730455e+002;2,491534e-002
6,749741e+002;2,545010e-002
6,769025e+002;2,566602e-002
6,788311e+002;2,529421e-002
6,807595e+002;2,554325e-002
6,826880e+002;2,654431e-002
6,846165e+002;2,639619e-002
6,865450e+002;2,598506e-002
6,884735e+002;2,554852e-002
6,904020e+002;2,608687e-002
6,923305e+002;2,653494e-002
6,942590e+002;2,655569e-002
6,961875e+002;2,654699e-002
6,981160e+002;2,655259e-002
7,000445e+002;2,725822e-002
7,019730e+002;2,872897e-002
7,039015e+002;2,949283e-002
7,058300e+002;2,994269e-002
7,077585e+002;3,073156e-002
7,096870e+002;2,918300e-002
7,116155e+002;2,470808e-002
7,135440e+002;1,922365e-002
7,154725e+002;1,786612e-002
7,174010e+002;1,944466e-002
7,193295e+002;1,894940e-002
7,212580e+002;1,902721e-002
7,231865e+002;2,117314e-002
7,251150e+002;2,300351e-002
7,270435e+002;2,376299e-002
7,289720e+002;2,470383e-002
7,309005e+002;2,482956e-002
7,328290e+002;2,521983e-002
7,347574e+002;2,649648e-002
7,366860e+002;2,612030e-002
7,386144e+002;2,565614e-002
7,405430e+002;2,522302e-002
7,424714e+002;2,404954e-002
7,444000e+002;2,249049e-002
7,463284e+002;2,052338e-002
7,482570e+002;2,009163e-002
7,501854e+002;2,085730e-002
7,521140e+002;2,165810e-002
7,540424e+002;2,088602e-002
7,559709e+002;1,851714e-002
7,578994e+002;1,753270e-002
7,598279e+002;1,722894e-002
7,617564e+002;1,753304e-002
7,636849e+002;1,857098e-002
7,656134e+002;2,020370e-002
7,675419e+002;2,237595e-002
7,694704e+002;2,300718e-002
7,713989e+002;2,086140e-002
7,733274e+002;1,746950e-002
7,752559e+002;1,468728e-002
7,771844e+002;1,250897e-002
7,791129e+002;1,087503e-002
7,810414e+002;9,192562e-003
7,829699e+002;8,977442e-003
7,848984e+002;9,331610e-003
7,868269e+002;9,969612e-003
7,887554e+002;1,108195e-002
7,906839e+002;1,239767e-002
7,926124e+002;1,347917e-002
7,945409e+002;1,376681e-002
7,964694e+002;1,356705e-002
7,983979e+002;1,421411e-002
8,003264e+002;1,427571e-002
8,022549e+002;1,415181e-002
8,041833e+002;1,462957e-002
8,061119e+002;1,480890e-002
8,080403e+002;1,512068e-002
8,099689e+002;1,546153e-002
8,118973e+002;1,620496e-002
8,138259e+002;1,732955e-002
8,157543e+002;1,720946e-002
8,176829e+002;1,631542e-002
8,196113e+002;1,513835e-002
8,215399e+002;1,450964e-002
8,234683e+002;1,495422e-002
8,253969e+002;1,592292e-002
8,273253e+002;1,754253e-002
8,292538e+002;1,891905e-002
8,311823e+002;1,913070e-002
8,331108e+002;1,797762e-002
8,350393e+002;1,593341e-002
8,369678e+002;1,508953e-002
8,388963e+002;1,711326e-002
8,408248e+002;1,971347e-002
8,427533e+002;2,097600e-002
8,446818e+002;2,101067e-002
8,466103e+002;2,008070e-002
8,485388e+002;1,839316e-002
8,504673e+002;1,669862e-002
8,523958e+002;1,573200e-002
8,543243e+002;1,469787e-002
8,562528e+002;1,420312e-002
8,581813e+002;1,449111e-002
8,601098e+002;1,442085e-002
8,620383e+002;1,395786e-002
8,639668e+002;1,378038e-002
8,658953e+002;1,367085e-002
8,678238e+002;1,439410e-002
8,697523e+002;1,321218e-002
8,716808e+002;1,181949e-002
8,736093e+002;1,345237e-002
8,755378e+002;1,441996e-002
8,774662e+002;1,472299e-002
8,793948e+002;1,505643e-002
8,813232e+002;1,560717e-002
8,832518e+002;1,617910e-002
8,851802e+002;1,639359e-002
8,871088e+002;1,626932e-002
8,890372e+002;1,641650e-002
8,909658e+002;1,698575e-002
8,928942e+002;1,746702e-002
8,948228e+002;1,782770e-002
8,967512e+002;1,839247e-002
8,986797e+002;1,837640e-002
9,006082e+002;1,743315e-002
9,025367e+002;1,683634e-002
9,044652e+002;1,693276e-002
9,063937e+002;1,707100e-002
9,083222e+002;1,764673e-002
9,102507e+002;1,808583e-002
9,121792e+002;1,838304e-002
9,141077e+002;1,883821e-002
9,160362e+002;1,902971e-002
9,179647e+002;1,881222e-002
9,198932e+002;1,909317e-002
9,218217e+002;1,882485e-002
9,237502e+002;1,857077e-002
9,256787e+002;1,868152e-002
9,276072e+002;1,858288e-002
9,295357e+002;1,893711e-002
9,314642e+002;1,938108e-002
9,333927e+002;1,958887e-002
9,353212e+002;1,996561e-002
9,372497e+002;2,012072e-002
9,391782e+002;2,036747e-002
9,411067e+002;2,044165e-002
9,430352e+002;2,029021e-002
9,449637e+002;2,017896e-002
9,468922e+002;2,087333e-002
9,488207e+002;2,139585e-002
9,507491e+002;2,178183e-002
9,526777e+002;2,229178e-002
9,546061e+002;2,219451e-002
9,565347e+002;2,211445e-002
9,584631e+002;2,246164e-002
9,603917e+002;2,278301e-002
9,623201e+002;2,274740e-002
9,642487e+002;2,307465e-002
9,661771e+002;2,483426e-002
9,681057e+002;2,711042e-002
9,700341e+002;2,831216e-002
9,719626e+002;2,839386e-002
9,738911e+002;2,696479e-002
9,758196e+002;2,460154e-002
9,777481e+002;2,225198e-002
9,796766e+002;2,047479e-002
9,816051e+002;1,947609e-002
9,835336e+002;1,884167e-002
9,854621e+002;1,826774e-002
9,873906e+002;1,801765e-002
9,893191e+002;1,818170e-002
9,912476e+002;1,879101e-002
9,931761e+002;1,850251e-002
9,951046e+002;1,790838e-002
9,970331e+002;1,779590e-002
9,989616e+002;1,749144e-002
1,000890e+003;1,645529e-002
1,002819e+003;1,548151e-002
1,004747e+003;1,455236e-002
1,006676e+003;1,366415e-002
1,008604e+003;1,354038e-002
1,010533e+003;1,348997e-002
1,012461e+003;1,318666e-002
1,014390e+003;1,330335e-002
1,016318e+003;1,378394e-002
1,018247e+003;1,456586e-002
1,020175e+003;1,516144e-002
1,022104e+003;1,544343e-002
1,024032e+003;1,581061e-002
1,025961e+003;1,574416e-002
1,027889e+003;1,519270e-002
1,029818e+003;1,398500e-002
1,031746e+003;1,391294e-002
1,033675e+003;1,671877e-002
1,035603e+003;2,011784e-002
1,037531e+003;2,191507e-002
1,039460e+003;2,334959e-002
1,041389e+003;2,489994e-002
1,043317e+003;2,678699e-002
1,045245e+003;2,821697e-002
1,047174e+003;2,853159e-002
1,049103e+003;2,864540e-002
1,051031e+003;2,847831e-002
1,052959e+003;2,829229e-002
1,054888e+003;2,814035e-002
1,056817e+003;2,798822e-002
1,058745e+003;2,832051e-002
1,060673e+003;2,908032e-002
1,062602e+003;3,012211e-002
1,064531e+003;3,033194e-002
1,066459e+003;3,008564e-002
1,068387e+003;2,914743e-002
1,070316e+003;2,678587e-002
1,072245e+003;2,429952e-002
1,074173e+003;2,363219e-002
1,076101e+003;2,455361e-002
1,078030e+003;2,517678e-002
1,079958e+003;2,474887e-002
1,081887e+003;2,362656e-002
1,083815e+003;2,226862e-002
1,085744e+003;2,088341e-002
1,087672e+003;2,019999e-002
1,089601e+003;2,052876e-002
1,091529e+003;2,051164e-002
1,093458e+003;2,092718e-002
1,095386e+003;2,185454e-002
1,097315e+003;2,247947e-002
1,099243e+003;2,311588e-002
1,101172e+003;2,441019e-002
1,103100e+003;2,547445e-002
1,105029e+003;2,583449e-002
1,106957e+003;2,574831e-002
1,108886e+003;2,662403e-002
1,110814e+003;2,834282e-002
1,112743e+003;2,849023e-002
1,114671e+003;2,781728e-002
1,116600e+003;2,793875e-002
1,118528e+003;2,802148e-002
1,120457e+003;2,883504e-002
1,122385e+003;2,929791e-002
1,124314e+003;2,911444e-002
1,126242e+003;2,951159e-002
1,128171e+003;2,982939e-002
1,130099e+003;2,864830e-002
1,132028e+003;2,736401e-002
1,133956e+003;2,731602e-002
1,135885e+003;2,828963e-002
1,137813e+003;2,758070e-002
1,139742e+003;2,546742e-002
1,141670e+003;2,495398e-002
1,143599e+003;2,553675e-002
1,145527e+003;2,619336e-002
1,147456e+003;2,701676e-002
1,149384e+003;2,714996e-002
1,151313e+003;2,768363e-002
1,153241e+003;2,656499e-002
1,155170e+003;2,387885e-002
1,157098e+003;2,125950e-002
1,159027e+003;2,025105e-002
1,160955e+003;1,998945e-002
1,162884e+003;1,948739e-002
1,164812e+003;1,862867e-002
1,166741e+003;1,775293e-002
1,168669e+003;1,648113e-002
1,170598e+003;1,549885e-002
1,172526e+003;1,474318e-002
1,174455e+003;1,507526e-002
1,176383e+003;1,572788e-002
1,178312e+003;1,628150e-002
1,180240e+003;1,617910e-002
1,182169e+003;1,553322e-002
1,184097e+003;1,479885e-002
1,186026e+003;1,479495e-002
1,187954e+003;1,526476e-002
1,189883e+003;1,610420e-002
1,191811e+003;1,690906e-002
1,193740e+003;1,758949e-002
1,195668e+003;1,793442e-002
1,197597e+003;1,727938e-002
1,199525e+003;1,643381e-002
1,201454e+003;1,567923e-002
1,203382e+003;1,482968e-002
1,205311e+003;1,424137e-002
1,207239e+003;1,294788e-002
1,209168e+003;1,164414e-002
1,211096e+003;1,046173e-002
1,213025e+003;8,983801e-003
1,214953e+003;7,777565e-003
1,216882e+003;7,170529e-003
1,218810e+003;6,533361e-003
1,220739e+003;6,219682e-003
1,222667e+003;6,341374e-003
1,224596e+003;6,181601e-003
1,226524e+003;6,405327e-003
1,228453e+003;7,676985e-003
1,230381e+003;8,547725e-003
1,232310e+003;8,602405e-003
1,234238e+003;9,172561e-003
1,236167e+003;9,705178e-003
1,238095e+003;1,056292e-002
1,240024e+003;1,181864e-002
1,241952e+003;1,325522e-002
1,243881e+003;1,495953e-002
1,245809e+003;1,580254e-002
1,247738e+003;1,625793e-002
1,249666e+003;1,657258e-002
1,251595e+003;1,629433e-002
1,253523e+003;1,578027e-002
1,255452e+003;1,507492e-002
1,257380e+003;1,417245e-002
1,259309e+003;1,312245e-002
1,261237e+003;1,207649e-002
1,263166e+003;1,097398e-002
1,265094e+003;1,037091e-002
1,267023e+003;9,830324e-003
1,268951e+003;9,794535e-003
1,270880e+003;1,012373e-002
1,272808e+003;1,090632e-002
1,274737e+003;1,197089e-002
1,276665e+003;1,210214e-002
1,278594e+003;1,159721e-002
1,280522e+003;1,152616e-002
1,282451e+003;1,115126e-002
1,284379e+003;1,026179e-002
1,286308e+003;9,782030e-003
1,288236e+003;9,188670e-003
1,290165e+003;8,350624e-003
1,292093e+003;8,142774e-003
1,294022e+003;8,142031e-003
1,295950e+003;8,096220e-003
1,297879e+003;7,981595e-003
1,299807e+003;7,913427e-003
1,301736e+003;7,902157e-003
1,303664e+003;7,483953e-003
1,305593e+003;6,685289e-003
1,307521e+003;5,781267e-003
1,309450e+003;5,337759e-003
1,311378e+003;4,804606e-003
1,313307e+003;4,229880e-003
1,315235e+003;3,821479e-003
1,317164e+003;3,494086e-003
1,319092e+003;3,290551e-003
1,321021e+003;3,104497e-003
1,322949e+003;3,071527e-003
1,324878e+003;3,109903e-003
1,326806e+003;3,172514e-003
1,328735e+003;3,158896e-003
1,330663e+003;3,091515e-003
1,332592e+003;3,102394e-003
1,334520e+003;3,128959e-003
1,336449e+003;3,167040e-003
1,338377e+003;3,385444e-003
1,340306e+003;3,491949e-003
1,342234e+003;3,293055e-003
1,344163e+003;3,117178e-003
1,346091e+003;3,329047e-003
1,348020e+003;3,646525e-003
1,349948e+003;3,879044e-003
1,351877e+003;4,047370e-003
1,353805e+003;4,246744e-003
1,355734e+003;4,576580e-003
1,357662e+003;4,953350e-003
1,359591e+003;5,104123e-003
1,361519e+003;5,326992e-003
1,363448e+003;5,898638e-003
1,365376e+003;6,260455e-003
1,367305e+003;6,323118e-003
1,369233e+003;6,582675e-003
1,371161e+003;6,700902e-003
1,373090e+003;6,709685e-003
1,375019e+003;6,956577e-003
1,376947e+003;7,221735e-003
1,378875e+003;7,910796e-003
1,380804e+003;8,587636e-003
1,382733e+003;8,899750e-003
1,384661e+003;9,135202e-003
1,386589e+003;9,522486e-003
1,388518e+003;9,536372e-003
1,390447e+003;9,235612e-003
1,392375e+003;9,051189e-003
1,394303e+003;8,855584e-003
1,396232e+003;7,819733e-003
1,398161e+003;6,618604e-003
1,400089e+003;5,416628e-003
1,402017e+003;4,900133e-003
1,403946e+003;4,729801e-003
1,405875e+003;4,554213e-003
1,407803e+003;4,376453e-003
1,409731e+003;4,263876e-003
1,411660e+003;4,162032e-003
1,413589e+003;4,421672e-003
1,415517e+003;5,207093e-003
1,417445e+003;6,304628e-003
1,419374e+003;7,923247e-003
1,421302e+003;9,096560e-003
1,423231e+003;1,034434e-002
1,425159e+003;1,245297e-002
1,427088e+003;1,397959e-002
1,429016e+003;1,448374e-002
1,430945e+003;1,453033e-002
1,432873e+003;1,472395e-002
1,434802e+003;1,432957e-002
1,436730e+003;1,509838e-002
1,438659e+003;1,623503e-002
1,440587e+003;1,610011e-002
1,442516e+003;1,527345e-002
1,444444e+003;1,423753e-002
1,446373e+003;1,323230e-002
1,448301e+003;1,239573e-002
1,450230e+003;1,188871e-002
1,452158e+003;1,174874e-002
1,454087e+003;1,150690e-002
1,456015e+003;1,114531e-002
1,457944e+003;1,035072e-002
1,459872e+003;9,964221e-003
1,461801e+003;9,490311e-003
1,463729e+003;9,274740e-003
1,465658e+003;9,690302e-003
1,467586e+003;9,669161e-003
1,469515e+003;9,028319e-003
1,471443e+003;8,833401e-003
1,473372e+003;9,255175e-003
1,475300e+003;8,706039e-003
1,477229e+003;7,997861e-003
1,479157e+003;7,566988e-003
1,481086e+003;7,193503e-003
1,483014e+003;6,565014e-003
1,484943e+003;6,130754e-003
1,486871e+003;5,815786e-003
1,488800e+003;5,463869e-003
1,490728e+003;5,524639e-003
1,492657e+003;5,357349e-003
1,494585e+003;4,976777e-003
1,496514e+003;4,171332e-003
1,498442e+003;2,972632e-003
1,500371e+003;2,233834e-003
1,502299e+003;1,844008e-003
1,504228e+003;1,398185e-003
1,506156e+003;1,416003e-003
1,508085e+003;1,552783e-003
1,510013e+003;7,552509e-004
1,511942e+003;5,965903e-004
1,513870e+003;7,890082e-004
1,515799e+003;7,045038e-004
1,517727e+003;3,711171e-005
1,519656e+003;-2,009446e-004
1,521584e+003;-4,459539e-004
1,523513e+003;-2,256505e-004
1,525441e+003;-1,270173e-004
1,527370e+003;5,646407e-005
1,529298e+003;5,246298e-004
1,531227e+003;7,163520e-004
1,533155e+003;7,822698e-004
1,535084e+003;4,988211e-004
1,537012e+003;3,237076e-004
1,538941e+003;3,586584e-004
1,540869e+003;8,843195e-004
1,542798e+003;1,491237e-003
1,544726e+003;1,482692e-003
1,546655e+003;1,128818e-003
1,548583e+003;7,767929e-004
1,550512e+003;5,284116e-004
1,552440e+003;5,356437e-004
1,554369e+003;6,096301e-004
1,556297e+003;9,798509e-004
1,558226e+003;1,493996e-003
1,560154e+003;9,641434e-004
1,562083e+003;9,734085e-004
1,564011e+003;8,062364e-004
1,565940e+003;5,928079e-004
1,567868e+003;6,598684e-004
1,569797e+003;5,424778e-004
1,571725e+003;7,380912e-004
1,573654e+003;7,601634e-004
1,575582e+003;5,018398e-004
1,577511e+003;6,803105e-004
1,579439e+003;6,750672e-004
1,581368e+003;7,267402e-004
1,583296e+003;7,077230e-004
1,585225e+003;7,750004e-004
1,587153e+003;9,334274e-004
1,589082e+003;1,032357e-003
1,591010e+003;9,622506e-004
1,592939e+003;1,083409e-003
1,594867e+003;1,012663e-003
1,596796e+003;1,054345e-003
1,598724e+003;1,345734e-003
1,600653e+003;1,816158e-003
1,602581e+003;1,777596e-003
1,604510e+003;1,612542e-003
1,606438e+003;1,536556e-003
1,608367e+003;1,783751e-003
1,610295e+003;2,345919e-003
1,612224e+003;2,554378e-003
1,614152e+003;2,488324e-003
1,616081e+003;2,443472e-003
1,618009e+003;2,470396e-003
1,619938e+003;2,743464e-003
1,621866e+003;2,889202e-003
1,623795e+003;3,016004e-003
1,625723e+003;3,003659e-003
1,627652e+003;3,083306e-003
1,629580e+003;3,215238e-003
1,631509e+003;3,434235e-003
1,633437e+003;3,492784e-003
1,635366e+003;3,774116e-003
1,637294e+003;3,766763e-003
1,639223e+003;3,756736e-003
1,641151e+003;3,871589e-003
1,643080e+003;4,100884e-003
1,645008e+003;3,937486e-003
1,646937e+003;4,028508e-003
1,648865e+003;4,446744e-003
1,650794e+003;4,838043e-003
1,652722e+003;5,441153e-003
1,654651e+003;5,453769e-003
1,656579e+003;5,287715e-003
1,658508e+003;5,836506e-003
1,660436e+003;6,229665e-003
1,662365e+003;6,887628e-003
1,664293e+003;7,444682e-003
1,666222e+003;7,864030e-003
1,668150e+003;8,290538e-003
1,670079e+003;9,358762e-003
1,672007e+003;1,049139e-002
1,673936e+003;1,153215e-002
1,675864e+003;1,229629e-002
1,677793e+003;1,306857e-002
1,679721e+003;1,434803e-002
1,681650e+003;1,547619e-002
1,683578e+003;1,588563e-002
1,685507e+003;1,842538e-002
1,687435e+003;1,950916e-002
1,689364e+003;2,129677e-002
1,691292e+003;2,393511e-002
1,693221e+003;2,647546e-002
1,695149e+003;2,936019e-002
1,697078e+003;3,489088e-002
1,699006e+003;3,669710e-002
1,700935e+003;4,227865e-002
1,702863e+003;4,460640e-002
1,704792e+003;4,693571e-002
1,706720e+003;4,658619e-002
1,708649e+003;4,599137e-002
1,710577e+003;4,392720e-002
1,712505e+003;4,146910e-002
1,714434e+003;3,851257e-002
1,716363e+003;3,624693e-002
1,718291e+003;2,900635e-002
1,720219e+003;2,223137e-002
1,722148e+003;1,819438e-002
1,724077e+003;1,429252e-002
1,726005e+003;1,109007e-002
1,727933e+003;9,549209e-003
1,729862e+003;8,801751e-003
1,731791e+003;8,053046e-003
1,733719e+003;7,231100e-003
1,735647e+003;5,713176e-003
1,737576e+003;5,466184e-003
1,739505e+003;5,083270e-003
1,741433e+003;5,800272e-003
1,743361e+003;6,144532e-003
1,745290e+003;5,481048e-003
1,747219e+003;4,727524e-003
1,749147e+003;3,893788e-003
1,751075e+003;2,704487e-003
1,753004e+003;1,934659e-003
1,754932e+003;1,477904e-003
1,756861e+003;1,022394e-003
1,758789e+003;1,012530e-003
1,760718e+003;1,096961e-003
1,762646e+003;7,323492e-004
1,764575e+003;6,063784e-004
1,766503e+003;1,063911e-003
1,768432e+003;1,822979e-003
1,770360e+003;2,626976e-003
1,772289e+003;4,271036e-003
1,774217e+003;5,989568e-003
1,776146e+003;7,336867e-003
1,778074e+003;8,249000e-003
1,780003e+003;7,942684e-003
1,781931e+003;6,530872e-003
1,783860e+003;5,106637e-003
1,785788e+003;3,770306e-003
1,787717e+003;2,949313e-003
1,789645e+003;2,680582e-003
1,791574e+003;2,832535e-003
1,793502e+003;3,517869e-003
1,795431e+003;4,867529e-003
1,797359e+003;6,522531e-003
1,799288e+003;8,073536e-003
1,801216e+003;8,827550e-003
1,803145e+003;8,132274e-003
1,805073e+003;7,538836e-003
1,807002e+003;6,795500e-003
1,808930e+003;5,323705e-003
1,810859e+003;3,632759e-003
1,812787e+003;2,346852e-003
1,814716e+003;1,158319e-003
1,816644e+003;2,184414e-004
1,818573e+003;4,373914e-005
1,820501e+003;-5,446895e-005
1,822430e+003;-6,056653e-004
1,824358e+003;-5,690024e-004
1,826287e+003;-8,729330e-004
1,828215e+003;-1,335565e-003
1,830144e+003;-1,520243e-003
1,832072e+003;-1,024455e-003
1,834001e+003;-6,717037e-004
1,835929e+003;-9,255072e-004
1,837858e+003;-1,141061e-003
1,839786e+003;-1,122455e-003
1,841715e+003;-1,003794e-003
1,843643e+003;-1,124570e-003
1,845572e+003;-9,838603e-004
1,847500e+003;-7,421313e-004
1,849429e+003;-8,369210e-004
1,851357e+003;-1,104013e-003
1,853286e+003;-1,212833e-003
1,855214e+003;-1,405720e-003
1,857143e+003;-1,105104e-003
1,859071e+003;-8,605656e-004
1,861000e+003;-5,678111e-004
1,862928e+003;7,936328e-005
1,864857e+003;4,494638e-004
1,866785e+003;5,140142e-004
1,868714e+003;2,514607e-004
1,870642e+003;-4,541627e-004
1,872571e+003;-7,558252e-004
1,874499e+003;-6,034484e-004
1,876428e+003;-4,602198e-004
1,878356e+003;-6,276351e-004
1,880285e+003;-7,638296e-004
1,882213e+003;-3,423385e-004
1,884142e+003;-3,455830e-004
1,886070e+003;-6,579741e-004
1,887999e+003;-6,177753e-004
1,889927e+003;-5,297551e-004
1,891856e+003;-3,928251e-004
1,893784e+003;-3,245923e-004
1,895713e+003;-4,157326e-004
1,897641e+003;-4,151036e-004
1,899570e+003;-4,519450e-004
1,901498e+003;-7,772251e-004
1,903427e+003;-1,034041e-003
1,905355e+003;-1,019034e-003
1,907284e+003;-9,889184e-004
1,909212e+003;-1,081506e-003
1,911141e+003;-1,108475e-003
1,913069e+003;-6,598599e-004
1,914998e+003;-3,919313e-004
1,916926e+003;-7,414698e-004
1,918855e+003;-1,396308e-003
1,920783e+003;-1,234045e-003
1,922712e+003;-4,615107e-004
1,924640e+003;-3,480661e-004
1,926569e+003;-5,242284e-004
1,928497e+003;-1,211776e-003
1,930426e+003;-1,685732e-003
1,932354e+003;-1,500960e-003
1,934283e+003;-1,480025e-003
1,936211e+003;-1,198988e-003
1,938140e+003;-7,366074e-004
1,940068e+003;-8,239903e-004
1,941997e+003;-1,440496e-003
1,943925e+003;-1,800675e-003
1,945854e+003;-1,508389e-003
1,947782e+003;-1,666951e-003
1,949711e+003;-1,545138e-003
1,951639e+003;-1,203593e-004
1,953568e+003;9,775642e-005
1,955496e+003;-6,485451e-004
1,957425e+003;-1,025281e-003
1,959353e+003;-1,397199e-003
1,961282e+003;-1,814270e-003
1,963210e+003;-1,378142e-003
1,965139e+003;-1,181905e-003
1,967067e+003;-1,071590e-003
1,968996e+003;-1,301045e-003
1,970924e+003;-1,229387e-003
1,972853e+003;-2,024349e-004
1,974781e+003;-4,807076e-004
1,976710e+003;-1,967385e-004
1,978638e+003;1,703477e-003
1,980567e+003;1,876619e-003
1,982495e+003;6,479554e-004
1,984424e+003;-5,662228e-004
1,986352e+003;-2,556864e-004
1,988281e+003;2,577599e-004
1,990209e+003;1,353736e-004
1,992138e+003;7,187084e-004
1,994066e+003;2,550413e-004
1,995995e+003;-6,297526e-004
1,997923e+003;-1,612915e-003
1,999852e+003;-1,788334e-003
2,001780e+003;-1,598984e-003
2,003709e+003;-2,168633e-003
2,005637e+003;-2,105229e-003
2,007566e+003;-1,033578e-003
2,009494e+003;3,587579e-004
2,011423e+003;-3,008467e-005
2,013351e+003;1,435272e-004
2,015280e+003;7,616238e-004
2,017208e+003;-2,332672e-004
2,019137e+003;-1,067657e-003
2,021065e+003;-1,153718e-003
2,022994e+003;-1,351223e-003
2,024922e+003;-1,585350e-003
2,026851e+003;-1,723159e-003
2,028779e+003;-7,205312e-004
2,030708e+003;7,955143e-004
2,032636e+003;9,146004e-004
2,034565e+003;2,923074e-004
2,036493e+003;-5,609613e-004
2,038422e+003;-7,347550e-004
2,040350e+003;8,052318e-005
2,042279e+003;4,415698e-004
2,044207e+003;2,823275e-004
2,046135e+003;-1,189680e-004
2,048064e+003;-7,425613e-004
2,049992e+003;6,035250e-004
2,051921e+003;5,969885e-004
2,053850e+003;-1,765685e-004
2,055778e+003;-3,475695e-004
2,057707e+003;-8,018321e-004
2,059635e+003;-8,195587e-004
2,061563e+003;-1,115382e-003
2,063492e+003;-7,562882e-004
2,065420e+003;-6,096358e-004
2,067349e+003;-1,082497e-003
2,069278e+003;-8,158216e-004
2,071206e+003;-1,195312e-004
2,073135e+003;-1,858780e-005
2,075063e+003;2,207951e-004
2,076991e+003;3,886042e-004
2,078920e+003;8,955086e-004
2,080848e+003;1,259792e-003
2,082777e+003;3,878082e-004
2,084706e+003;-5,441837e-004
2,086634e+003;-5,148296e-004
2,088563e+003;-3,492580e-004
2,090491e+003;-1,055857e-003
2,092419e+003;-1,395548e-003
2,094348e+003;-1,413647e-003
2,096276e+003;-8,590444e-004
2,098205e+003;-4,825941e-004
2,100134e+003;-5,196945e-004
2,102062e+003;-1,628564e-004
2,103990e+003;-9,332856e-005
2,105919e+003;3,923248e-005
2,107847e+003;-9,774431e-006
2,109776e+003;-3,776301e-004
2,111704e+003;-7,315795e-004
2,113633e+003;-9,958936e-004
2,115562e+003;-1,095354e-003
2,117490e+003;-1,386994e-003
2,119418e+003;-1,801137e-003
2,121347e+003;-1,629685e-003
2,123275e+003;-1,793911e-003
2,125204e+003;-2,044883e-003
2,127132e+003;-2,217919e-003
2,129061e+003;-2,435963e-003
2,130990e+003;-3,123946e-003
2,132918e+003;-3,289615e-003
2,134846e+003;-2,142191e-003
2,136775e+003;-1,075127e-003
2,138703e+003;-1,302994e-003
2,140632e+003;-1,772066e-003
2,142560e+003;-2,334831e-003
2,144489e+003;-2,173216e-003
2,146417e+003;-1,479199e-003
2,148346e+003;-1,831032e-003
2,150274e+003;-2,277417e-003
2,152203e+003;-3,284452e-003
2,154131e+003;-4,332954e-003
2,156060e+003;-5,419379e-003
2,157988e+003;-3,582973e-003
2,159917e+003;1,371095e-003
2,161845e+003;2,727293e-003
2,163774e+003;7,454263e-004
2,165702e+003;5,364068e-004
2,167631e+003;4,075678e-005
2,169559e+003;-1,411612e-004
2,171488e+003;-1,090304e-004
2,173416e+003;-4,854074e-004
2,175345e+003;-5,566594e-004
2,177273e+003;1,595448e-003
2,179202e+003;6,822021e-004
2,181130e+003;-6,280983e-004
2,183059e+003;2,876656e-004
2,184987e+003;5,249615e-004
2,186916e+003;-1,171462e-004
2,188844e+003;-3,293931e-004
2,190773e+003;-6,393144e-004
2,192701e+003;-9,888522e-004
2,194630e+003;-7,070347e-004
2,196558e+003;-3,632953e-004
2,198487e+003;2,577268e-004
2,200415e+003;-2,744619e-004
2,202344e+003;-9,255072e-004
2,204272e+003;-6,128122e-004
2,206201e+003;-4,757429e-004
2,208129e+003;-6,559560e-004
2,210058e+003;-1,584843e-004
2,211986e+003;5,977792e-005
2,213915e+003;-4,275830e-004
2,215843e+003;-2,078663e-004
2,217772e+003;1,145728e-003
2,219700e+003;1,319245e-003
2,221629e+003;-1,342715e-004
2,223557e+003;-9,556931e-004
2,225486e+003;-7,052484e-004
2,227414e+003;-7,403120e-004
2,229343e+003;-3,360810e-004
2,231271e+003;5,276487e-004
2,233200e+003;2,770890e-004
2,235128e+003;-1,021734e-004
2,237057e+003;7,952177e-007
2,238985e+003;1,159693e-006
2,240914e+003;9,277630e-006
2,242842e+003;-6,304950e-005
2,244771e+003;-3,302870e-004
2,246699e+003;-3,936527e-004
2,248628e+003;-2,655213e-004
2,250556e+003;-2,186296e-004
2,252485e+003;2,349267e-005
2,254413e+003;4,064798e-004
2,256342e+003;7,696896e-004
2,258270e+003;2,779510e-004
2,260199e+003;1,353074e-004
2,262127e+003;-1,921732e-005
2,264056e+003;-2,812832e-004
2,265984e+003;-7,779176e-005
2,267913e+003;3,041444e-004
2,269841e+003;2,694633e-004
2,271770e+003;1,052465e-004
2,273698e+003;8,794665e-005
2,275627e+003;1,942089e-004
2,277555e+003;1,172705e-003
2,279484e+003;1,340882e-003
2,281412e+003;7,191731e-004
2,283341e+003;8,605146e-004
2,285269e+003;1,433655e-003
2,287198e+003;1,215133e-003
2,289126e+003;1,223639e-003
2,291055e+003;1,150080e-003
2,292983e+003;9,896477e-004
2,294912e+003;5,820247e-004
2,296840e+003;3,079907e-004
2,298769e+003;2,592850e-004
2,300697e+003;-1,191999e-004
2,302626e+003;7,687778e-005
2,304554e+003;3,023871e-004
2,306483e+003;4,171259e-004
2,308411e+003;4,935468e-004
2,310340e+003;2,311051e-004
2,312268e+003;1,923526e-004
2,314197e+003;8,959734e-004
2,316125e+003;9,664347e-004
2,318054e+003;1,078559e-003
2,319982e+003;1,650025e-003
2,321911e+003;1,620624e-003
2,323839e+003;1,013692e-003
2,325768e+003;5,077777e-004
2,327696e+003;8,606142e-004
2,329625e+003;7,315195e-004
2,331553e+003;-4,461525e-004
2,333482e+003;-7,943244e-004
2,335410e+003;-4,793506e-004
2,337339e+003;-9,336407e-004
2,339267e+003;-7,894626e-004
2,341196e+003;-7,206056e-005
2,343124e+003;3,365071e-004
2,345053e+003;6,386973e-004
2,346981e+003;-3,998431e-004
2,348910e+003;-9,066275e-004
2,350838e+003;-5,088726e-004
2,352767e+003;9,059791e-005
2,354695e+003;-3,287309e-004
2,356624e+003;-7,975987e-004
2,358552e+003;-8,279258e-004
2,360481e+003;-1,823311e-003
2,362409e+003;-7,708085e-004
2,364338e+003;-1,112243e-003
2,366266e+003;-1,363246e-003
2,368195e+003;1,388870e-004
2,370123e+003;4,771934e-004
2,372052e+003;1,834025e-004
2,373980e+003;-4,708775e-004
2,375909e+003;-6,649547e-004
2,377837e+003;-1,025678e-003
2,379766e+003;-1,405720e-003
2,381694e+003;-1,161153e-003
2,383623e+003;-1,125033e-003
2,385551e+003;-1,270388e-003
2,387479e+003;-1,308412e-003
2,389408e+003;-1,265168e-003
2,391337e+003;-8,894995e-004
2,393265e+003;-1,063790e-003
2,395194e+003;-1,246832e-003
2,397122e+003;-1,473156e-003
2,399051e+003;-1,489304e-003
2,400979e+003;-1,442874e-003
2,402907e+003;-1,557420e-003
2,404836e+003;-1,405753e-003
2,406765e+003;-7,046199e-004
2,408693e+003;-5,638071e-004
2,410622e+003;-1,029975e-003
2,412550e+003;-1,309469e-003
2,414479e+003;-1,073805e-003
2,416407e+003;-9,400879e-004
2,418335e+003;-1,080085e-003
2,420264e+003;-8,736605e-004
2,422193e+003;-5,739329e-004
2,424121e+003;-8,507111e-004
2,426050e+003;-1,014836e-003
2,427978e+003;-1,038437e-003
2,429906e+003;-1,025579e-003
2,431835e+003;-1,099320e-003
2,433763e+003;-1,053279e-003
2,435692e+003;-6,741187e-004
2,437621e+003;-3,717704e-004
2,439549e+003;-4,233460e-004
2,441478e+003;-9,128106e-004
2,443406e+003;-1,062468e-003
2,445334e+003;-1,028620e-003
2,447263e+003;-1,163466e-003
2,449191e+003;-1,141986e-003
2,451120e+003;-8,030558e-004
2,453049e+003;-4,045107e-004
2,454977e+003;-5,540783e-004
2,456906e+003;-8,863582e-004
2,458834e+003;-9,954309e-004
2,460762e+003;-6,700826e-004
2,462691e+003;-5,579414e-005
2,464619e+003;-6,754751e-004
2,466548e+003;-1,646420e-003
2,468477e+003;-1,482072e-003
2,470405e+003;-9,688513e-004
2,472333e+003;-5,162196e-004
2,474262e+003;-5,706570e-004
2,476190e+003;-6,807352e-004
2,478119e+003;-1,150975e-003
2,480047e+003;-1,392609e-003
2,481976e+003;-1,310427e-003
2,483905e+003;-1,298171e-003
2,485833e+003;-1,558179e-003
2,487761e+003;-1,672529e-003
2,489690e+003;-1,314920e-003
2,491618e+003;-1,140268e-003
2,493547e+003;-1,098758e-003
2,495475e+003;-8,605656e-004
2,497404e+003;-4,236439e-004
2,499333e+003;-3,359817e-004
2,501261e+003;-6,251205e-004
2,503189e+003;-4,906698e-004
2,505118e+003;8,851004e-005
2,507046e+003;-1,471126e-005
2,508975e+003;-6,819592e-004
2,510903e+003;-7,557921e-004
2,512832e+003;-6,359066e-004
2,514760e+003;-7,807972e-004
2,516689e+003;-7,226152e-004
2,518617e+003;-6,326642e-004
2,520546e+003;-8,261731e-004
2,522474e+003;-9,103969e-004
2,524403e+003;-6,648224e-004
2,526331e+003;-5,897498e-004
2,528260e+003;-9,598257e-004
2,530188e+003;-1,083059e-003
2,532117e+003;-6,607862e-004
2,534045e+003;-3,616400e-004
2,535974e+003;-1,963411e-004
2,537902e+003;-2,625079e-004
2,539831e+003;-7,935637e-004
2,541759e+003;-9,330125e-004
2,543688e+003;-6,673036e-004
2,545616e+003;-2,721771e-004
2,547545e+003;-3,649837e-004
2,549473e+003;-3,142620e-004
2,551402e+003;-4,520443e-004
2,553330e+003;-4,920267e-004
2,555259e+003;-3,628026e-005
2,557187e+003;-3,110504e-004
2,559116e+003;-4,650853e-004
2,561044e+003;-3,277376e-004
2,562973e+003;-3,660431e-004
2,564901e+003;-8,382831e-006
2,566830e+003;-8,127019e-005
2,568758e+003;-5,045370e-004
2,570687e+003;-6,909244e-004
2,572615e+003;-8,056024e-004
2,574544e+003;-4,321841e-004
2,576472e+003;-1,490776e-004
2,578401e+003;-1,812394e-005
2,580329e+003;-3,313391e-006
2,582258e+003;-4,309925e-004
2,584186e+003;-5,083761e-004
2,586115e+003;-5,999742e-004
2,588043e+003;-6,480157e-004
2,589972e+003;-4,791851e-004
2,591900e+003;-6,428875e-004
2,593829e+003;-8,137050e-004
2,595757e+003;-5,490483e-004
2,597686e+003;-2,582693e-004
2,599614e+003;-2,504542e-004
2,601543e+003;-1,625252e-004
2,603471e+003;-3,732271e-004
2,605400e+003;-6,416965e-004
2,607328e+003;-5,945477e-004
2,609257e+003;-3,286316e-004
2,611185e+003;-1,188687e-004
2,613114e+003;-2,982063e-007
2,615042e+003;-1,357621e-004
2,616971e+003;-2,222394e-004
2,618899e+003;-2,983689e-004
2,620828e+003;-1,513962e-004
2,622756e+003;3,296431e-004
2,624685e+003;8,324068e-005
2,626613e+003;-2,283991e-004
2,628542e+003;7,044868e-005
2,630470e+003;2,047172e-004
2,632399e+003;1,494271e-004
2,634327e+003;4,645641e-005
2,636256e+003;-6,957591e-005
2,638184e+003;-2,658193e-004
2,640113e+003;-2,839321e-004
2,642041e+003;-3,096266e-004
2,643970e+003;-3,192285e-004
2,645898e+003;-2,437319e-004
2,647827e+003;-8,184031e-006
2,649755e+003;1,822423e-004
2,651684e+003;1,878112e-004
2,653612e+003;9,343899e-006
2,655541e+003;-1,553959e-005
2,657469e+003;-1,123761e-004
2,659398e+003;-4,004390e-004
2,661326e+003;-5,516295e-004
2,663255e+003;-6,514234e-004
2,665183e+003;-8,108608e-004
2,667112e+003;-8,686342e-004
2,669040e+003;-5,974926e-004
2,670969e+003;-4,811047e-004
2,672897e+003;-6,167496e-004
2,674826e+003;-9,643220e-004
2,676754e+003;-9,617763e-004
2,678683e+003;-8,972700e-004
2,680611e+003;-1,166242e-003
2,682540e+003;-1,224794e-003
2,684468e+003;-6,740195e-004
2,686397e+003;-4,190428e-004
2,688325e+003;-6,126137e-004
2,690254e+003;-4,133492e-004
2,692182e+003;-3,901768e-004
2,694111e+003;-6,688585e-004
2,696039e+003;-8,591436e-004
2,697968e+003;-8,630457e-004
2,699896e+003;-9,996953e-004
2,701825e+003;-1,114986e-003
2,703753e+003;-9,455762e-004
2,705682e+003;-7,666411e-004
2,707610e+003;-7,401136e-004
2,709539e+003;-6,235986e-004
2,711467e+003;-4,754120e-004
2,713396e+003;-4,756105e-004
2,715324e+003;-8,536212e-004
2,717253e+003;-8,092073e-004
2,719181e+003;-6,529122e-004
2,721110e+003;-6,146652e-004
2,723038e+003;-5,432240e-004
2,724967e+003;-5,492800e-004
2,726895e+003;-5,851834e-004
2,728823e+003;-5,489159e-004
2,730752e+003;-3,915672e-004
2,732681e+003;-5,258500e-004
2,734609e+003;-5,860107e-004
2,736538e+003;-5,336602e-004
2,738466e+003;-7,780189e-004
2,740395e+003;-7,507644e-004
2,742323e+003;-6,771293e-004
2,744251e+003;-7,412051e-004
2,746180e+003;-7,112359e-004
2,748109e+003;-3,938182e-004
2,750037e+003;-4,466821e-004
2,751966e+003;-7,796065e-004
2,753894e+003;-7,927369e-004
2,755823e+003;-5,070192e-004
2,757751e+003;-6,666750e-004
2,759679e+003;-7,919431e-004
2,761608e+003;-6,921153e-004
2,763537e+003;-3,763059e-004
2,765465e+003;-3,822317e-004
2,767394e+003;-5,763485e-004
2,769322e+003;-9,606523e-004
2,771250e+003;-8,695271e-004
2,773179e+003;-5,114540e-004
2,775107e+003;-7,827486e-004
2,777036e+003;-1,030273e-003
2,778965e+003;-9,049742e-004
2,780893e+003;-7,683940e-004
2,782822e+003;-5,287954e-004
2,784750e+003;-5,083099e-004
2,786678e+003;-5,938859e-004
2,788607e+003;-7,010471e-004
2,790535e+003;-8,223037e-004
2,792464e+003;-6,759383e-004
2,794393e+003;-3,143614e-004
2,796321e+003;-5,032794e-004
2,798250e+003;-6,878147e-004
2,800178e+003;-8,527614e-004
2,802106e+003;-1,050073e-003
2,804035e+003;-8,315305e-004
2,805963e+003;-6,146652e-004
2,807892e+003;-8,679728e-004
2,809821e+003;-9,071234e-004
2,811749e+003;-8,150941e-004
2,813677e+003;-7,267831e-004
2,815606e+003;-4,662769e-004
2,817534e+003;-4,521436e-004
2,819463e+003;-4,524084e-004
2,821391e+003;-2,407183e-004
2,823320e+003;-1,583850e-004
2,825249e+003;-1,552384e-004
2,827177e+003;-5,191794e-005
2,829105e+003;-1,388294e-005
2,831034e+003;1,427318e-004
2,832962e+003;3,803954e-005
2,834891e+003;1,400802e-004
2,836819e+003;1,685524e-004
2,838748e+003;2,160877e-004
2,840677e+003;3,336554e-004
2,842605e+003;7,770627e-005
2,844533e+003;-2,862687e-005
2,846462e+003;5,166349e-004
2,848390e+003;1,018807e-003
2,850319e+003;1,019006e-003
2,852247e+003;1,028671e-003
2,854176e+003;8,175562e-004
2,856104e+003;3,171754e-004
2,858033e+003;1,574815e-004
2,859961e+003;4,813398e-004
2,861890e+003;5,832855e-004
2,863818e+003;8,186849e-004
2,865747e+003;1,142904e-003
2,867675e+003;1,170412e-003
2,869604e+003;1,168419e-003
2,871532e+003;1,012762e-003
2,873461e+003;9,690582e-004
2,875389e+003;1,443063e-003
2,877318e+003;1,821714e-003
2,879246e+003;1,390241e-003
2,881175e+003;1,164033e-003
2,883103e+003;1,289634e-003
2,885032e+003;1,334733e-003
2,886960e+003;1,329648e-003
2,888889e+003;1,128453e-003
2,890817e+003;1,181974e-003
2,892746e+003;1,437212e-003
2,894674e+003;1,985184e-003
2,896603e+003;2,194103e-003
2,898531e+003;2,295285e-003
2,900460e+003;2,521417e-003
2,902388e+003;2,668547e-003
2,904317e+003;2,141456e-003
2,906245e+003;2,034516e-003
2,908174e+003;2,298050e-003
2,910102e+003;2,183380e-003
2,912031e+003;1,993505e-003
2,913959e+003;2,355347e-003
2,915888e+003;2,817561e-003
2,917816e+003;2,660879e-003
2,919745e+003;2,861351e-003
2,921673e+003;2,976435e-003
2,923602e+003;2,865421e-003
2,925530e+003;3,036357e-003
2,927459e+003;3,345508e-003
2,929387e+003;3,600283e-003
2,931316e+003;3,369516e-003
2,933244e+003;3,265111e-003
2,935173e+003;3,645155e-003
2,937101e+003;3,968716e-003
2,939030e+003;4,217133e-003
2,940958e+003;4,519860e-003
2,942887e+003;4,564894e-003
2,944815e+003;4,017873e-003
2,946744e+003;3,793435e-003
2,948672e+003;3,796310e-003
2,950601e+003;3,678402e-003
2,952529e+003;4,258221e-003
2,954458e+003;5,065134e-003
2,956386e+003;4,852317e-003
2,958315e+003;4,939107e-003
2,960243e+003;5,629554e-003
2,962172e+003;5,755010e-003
2,964100e+003;5,409146e-003
2,966029e+003;4,597475e-003
2,967957e+003;4,363299e-003
2,969886e+003;4,480221e-003
2,971814e+003;3,910671e-003
2,973743e+003;3,084107e-003
2,975671e+003;2,857849e-003
2,977600e+003;2,932299e-003
2,979528e+003;3,127991e-003
2,981457e+003;2,913519e-003
2,983385e+003;2,753701e-003
2,985314e+003;2,635843e-003
2,987242e+003;2,338890e-003
2,989171e+003;2,112721e-003
2,991099e+003;2,410585e-003
2,993028e+003;2,234999e-003
2,994956e+003;1,857951e-003
2,996885e+003;1,910530e-003
2,998813e+003;1,902210e-003
3,000742e+003;2,305911e-003
3,002670e+003;2,861852e-003
3,004599e+003;2,938337e-003
3,006527e+003;3,162067e-003
3,008456e+003;3,358330e-003
3,010384e+003;3,205625e-003
3,012313e+003;3,007196e-003
3,014241e+003;3,005994e-003
3,016170e+003;2,655478e-003
3,018098e+003;2,231502e-003
3,020027e+003;1,863807e-003
3,021955e+003;1,630235e-003
3,023884e+003;1,497687e-003
3,025812e+003;1,284417e-003
3,027741e+003;8,995261e-004
3,029669e+003;6,824344e-004
3,031598e+003;7,736064e-004
3,033526e+003;5,366390e-004
3,035455e+003;-1,953475e-004
3,037383e+003;1,006729e-004
3,039312e+003;9,003229e-004
3,041240e+003;8,364454e-004
3,043169e+003;2,286851e-004
3,045097e+003;-3,774646e-004
3,047026e+003;-1,011431e-003
3,048954e+003;-1,153486e-003
3,050883e+003;-7,926377e-004
3,052811e+003;-5,666199e-004
3,054740e+003;-4,570754e-004
3,056668e+003;-5,698297e-004
3,058597e+003;-7,103427e-004
3,060525e+003;-8,381115e-004
3,062454e+003;-7,576444e-004
3,064382e+003;-1,008026e-003
3,066311e+003;-1,170075e-003
3,068239e+003;-1,071755e-003
3,070167e+003;-1,024819e-003
3,072096e+003;-6,935378e-004
3,074025e+003;-1,104278e-003
3,075953e+003;-1,315547e-003
3,077882e+003;-8,784552e-004
3,079810e+003;-1,345221e-005
3,081739e+003;-2,747599e-004
3,083667e+003;-1,014836e-003
3,085595e+003;-1,362585e-003
3,087524e+003;-1,058105e-003
3,089453e+003;-9,795626e-004
3,091381e+003;-1,301508e-003
3,093310e+003;-1,322584e-003
3,095238e+003;-1,266192e-003
3,097167e+003;-1,183293e-003
3,099095e+003;-1,436269e-003
3,101023e+003;-1,346169e-003
3,102952e+003;-1,435378e-003
3,104881e+003;-1,857327e-003
3,106809e+003;-2,075222e-003
3,108738e+003;-1,727416e-003
3,110666e+003;-1,313995e-003
3,112594e+003;-1,747811e-003
3,114523e+003;-1,774079e-003
3,116451e+003;-1,449677e-003
3,118380e+003;-1,360438e-003
3,120309e+003;-1,152792e-003
3,122237e+003;-1,343328e-003
3,124166e+003;-1,628991e-003
3,126094e+003;-1,750352e-003
3,128022e+003;-1,182401e-003
3,129951e+003;-1,431150e-003
3,131879e+003;-1,798102e-003
3,133808e+003;-1,557981e-003
3,135737e+003;-1,298865e-003
3,137665e+003;-1,422333e-003
3,139594e+003;-1,970246e-003
3,141522e+003;-1,546921e-003
3,143450e+003;-1,257536e-003
3,145379e+003;-1,152264e-003
3,147307e+003;-1,070962e-003
3,149236e+003;-7,163963e-004
3,151165e+003;-8,420799e-004
3,153093e+003;-1,574323e-003
3,155021e+003;-2,043630e-003
3,156950e+003;-1,876364e-003
3,158878e+003;-1,558377e-003
3,160807e+003;-9,611151e-004
3,162735e+003;-6,928762e-004
3,164664e+003;-9,237548e-004
3,166593e+003;-9,803229e-004
3,168521e+003;-1,227735e-003
3,170449e+003;-1,375169e-003
3,172378e+003;-1,762265e-003
3,174306e+003;-2,097019e-003
3,176235e+003;-1,869238e-003
3,178163e+003;-1,884018e-003
3,180092e+003;-1,635296e-003
3,182021e+003;-9,725870e-004
3,183949e+003;-1,383096e-003
3,185877e+003;-2,172128e-003
3,187806e+003;-2,296897e-003
3,189734e+003;-1,712136e-003
3,191663e+003;-7,345565e-004
3,193591e+003;-7,066377e-004
3,195520e+003;-1,309502e-003
3,197448e+003;-1,592547e-003
3,199377e+003;-1,887680e-003
3,201305e+003;-1,787608e-003
3,203234e+003;-1,770548e-003
3,205162e+003;-1,726822e-003
3,207091e+003;-1,421078e-003
3,209019e+003;-1,786552e-003
3,210948e+003;-2,056821e-003
3,212876e+003;-2,428351e-003
3,214805e+003;-2,479057e-003
3,216733e+003;-2,026217e-003
3,218662e+003;-1,720815e-003
3,220590e+003;-1,715502e-003
3,222519e+003;-1,988288e-003
3,224447e+003;-2,487096e-003
3,226376e+003;-2,239676e-003
3,228304e+003;-1,511394e-003
3,230233e+003;-1,695336e-003
3,232161e+003;-1,851653e-003
3,234090e+003;-1,950324e-003
3,236018e+003;-2,099294e-003
3,237947e+003;-1,596541e-003
3,239875e+003;-1,504163e-003
3,241804e+003;-2,040101e-003
3,243732e+003;-2,734705e-003
3,245661e+003;-2,207469e-003
3,247589e+003;-1,972588e-003
3,249518e+003;-1,947850e-003
3,251446e+003;-2,280252e-003
3,253375e+003;-2,654852e-003
3,255303e+003;-2,522082e-003
3,257232e+003;-2,496716e-003
3,259160e+003;-2,289052e-003
3,261089e+003;-2,006066e-003
3,263017e+003;-2,216700e-003
3,264946e+003;-2,512957e-003
3,266874e+003;-2,457214e-003
3,268803e+003;-2,049929e-003
3,270731e+003;-1,486365e-003
3,272660e+003;-1,537709e-003
3,274588e+003;-2,475302e-003
3,276517e+003;-2,264068e-003
3,278445e+003;-1,435014e-003
3,280374e+003;-1,168258e-003
3,282302e+003;-1,463910e-003
3,284231e+003;-2,281340e-003
3,286159e+003;-3,226670e-003
3,288088e+003;-2,778066e-003
3,290016e+003;-1,741640e-003
3,291945e+003;-1,681144e-003
3,293873e+003;-2,593067e-003
3,295802e+003;-2,871853e-003
3,297730e+003;-2,828303e-003
3,299659e+003;-2,668090e-003
3,301587e+003;-2,078685e-003
3,303516e+003;-1,659326e-003
3,305444e+003;-1,933468e-003
3,307373e+003;-2,937844e-003
3,309301e+003;-3,452590e-003
3,311230e+003;-2,856415e-003
3,313158e+003;-2,206810e-003
3,315087e+003;-1,942737e-003
3,317015e+003;-2,085214e-003
3,318944e+003;-2,979572e-003
3,320872e+003;-2,661899e-003
3,322801e+003;-2,371708e-003
3,324729e+003;-2,363832e-003
3,326658e+003;-2,006791e-003
3,328586e+003;-2,227875e-003
3,330515e+003;-2,584931e-003
3,332443e+003;-2,826493e-003
3,334372e+003;-2,607690e-003
3,336300e+003;-2,716299e-003
3,338229e+003;-2,639637e-003
3,340157e+003;-2,539278e-003
3,342086e+003;-2,619152e-003
3,344014e+003;-2,039178e-003
3,345943e+003;-1,371305e-003
3,347871e+003;-1,840996e-003
3,349800e+003;-2,433656e-003
3,351728e+003;-3,156941e-003
3,353657e+003;-3,726555e-003
3,355585e+003;-3,591024e-003
3,357514e+003;-3,034327e-003
3,359442e+003;-2,471118e-003
3,361371e+003;-2,459652e-003
3,363299e+003;-2,639077e-003
3,365228e+003;-2,226391e-003
3,367156e+003;-2,167084e-003
3,369085e+003;-2,299402e-003
3,371013e+003;-2,851939e-003
3,372942e+003;-3,394831e-003
3,374870e+003;-3,390228e-003
3,376799e+003;-3,171677e-003
3,378727e+003;-3,665218e-003
3,380656e+003;-4,188522e-003
3,382584e+003;-3,547448e-003
3,384513e+003;-2,641316e-003
3,386441e+003;-2,367127e-003
3,388370e+003;-3,156743e-003
3,390298e+003;-3,837577e-003
3,392227e+003;-3,173848e-003
3,394155e+003;-2,814905e-003
3,396083e+003;-3,453445e-003
3,398012e+003;-3,479840e-003
3,399941e+003;-3,970668e-003
3,401869e+003;-4,280200e-003
3,403798e+003;-4,071780e-003
3,405726e+003;-3,144539e-003
3,407655e+003;-1,918426e-003
3,409583e+003;-1,853269e-003
3,411511e+003;-2,593067e-003
3,413440e+003;-2,966409e-003
3,415369e+003;-3,047291e-003
3,417297e+003;-2,472962e-003
3,419226e+003;-2,560853e-003
3,421154e+003;-2,820106e-003
3,423083e+003;-3,518920e-003
3,425011e+003;-3,788967e-003
3,426939e+003;-2,704477e-003
3,428868e+003;-2,196821e-003
3,430797e+003;-2,734573e-003
3,432725e+003;-2,696344e-003
3,434654e+003;-2,700691e-003
3,436582e+003;-2,546788e-003
3,438510e+003;-2,176678e-003
3,440439e+003;-2,428351e-003
3,442367e+003;-2,615924e-003
3,444296e+003;-2,515559e-003
3,446225e+003;-2,740993e-003
3,448153e+003;-3,355904e-003
3,450082e+003;-3,365570e-003
3,452010e+003;-2,762098e-003
3,453938e+003;-1,739000e-003
3,455867e+003;-2,390095e-003
3,457795e+003;-3,090062e-003
3,459724e+003;-3,034788e-003
3,461653e+003;-2,724465e-003
3,463581e+003;-2,155446e-003
3,465510e+003;-1,932577e-003
3,467438e+003;-1,864916e-003
3,469366e+003;-1,571946e-003
3,471295e+003;-1,765664e-003
3,473223e+003;-2,675335e-003
3,475152e+003;-3,291982e-003
3,477081e+003;-2,821588e-003
3,479009e+003;-2,532393e-003
3,480938e+003;-2,320198e-003
3,482866e+003;-2,169721e-003
3,484794e+003;-2,829521e-003
3,486723e+003;-2,397905e-003
3,488651e+003;-1,868710e-003
3,490580e+003;-1,789489e-003
3,492509e+003;-2,092732e-003
3,494437e+003;-1,840567e-003
3,496365e+003;-9,767526e-004
3,498294e+003;-1,014637e-003
3,500222e+003;-1,762925e-003
3,502151e+003;-2,168732e-003
3,504079e+003;-1,927530e-003
3,506008e+003;-1,839346e-003
3,507937e+003;-2,095436e-003
3,509865e+003;-2,628769e-003
3,511793e+003;-2,521094e-003
3,513722e+003;-2,516976e-003
3,515650e+003;-2,639637e-003
3,517579e+003;-2,226490e-003
3,519507e+003;-2,830706e-003
3,521436e+003;-2,998658e-003
3,523365e+003;-1,886459e-003
3,525293e+003;-1,773254e-003
3,527221e+003;-2,931294e-003
3,529150e+003;-3,484836e-003
3,531078e+003;-3,034459e-003
3,533007e+003;-1,725436e-003
3,534935e+003;-8,967079e-004
3,536864e+003;-1,674378e-003
3,538792e+003;-1,717185e-003
3,540721e+003;-1,980109e-003
3,542649e+003;-2,772634e-003
3,544578e+003;-3,245285e-003
3,546506e+003;-2,641646e-003
3,548435e+003;-1,475633e-003
3,550363e+003;-2,141136e-003
3,552292e+003;-3,311515e-003
3,554220e+003;-2,512199e-003
3,556149e+003;-1,930268e-003
3,558077e+003;-2,000756e-003
3,560006e+003;-7,752737e-004
3,561934e+003;-6,669728e-004
3,563863e+003;-2,606801e-003
3,565791e+003;-4,056746e-003
3,567720e+003;-3,323320e-003
3,569648e+003;-4,383504e-003
3,571577e+003;-4,914101e-003
3,573505e+003;-3,835672e-003
3,575434e+003;-3,026792e-003
3,577362e+003;-2,188348e-003
3,579291e+003;-2,074958e-003
3,581219e+003;-2,483307e-003
3,583148e+003;-2,682448e-003
3,585076e+003;-2,583646e-003
3,587005e+003;-2,171765e-003
3,588933e+003;-2,358823e-003
3,590862e+003;-2,002636e-003
3,592790e+003;-2,261959e-003
3,594719e+003;-3,350906e-003
3,596647e+003;-3,127039e-003
3,598576e+003;-2,497836e-003
3,600504e+003;-2,144730e-003
3,602433e+003;-1,573927e-003
3,604361e+003;-1,639885e-003
3,606290e+003;-2,237797e-003
3,608218e+003;-2,378595e-003
3,610147e+003;-1,827369e-003
3,612075e+003;-1,449512e-003
3,614004e+003;-1,352247e-003
3,615932e+003;-1,954381e-003
3,617861e+003;-2,209678e-003
3,619789e+003;-1,777379e-003
3,621718e+003;-1,459650e-003
3,623646e+003;-1,343262e-003
3,625575e+003;-1,282975e-003
3,627503e+003;-1,267183e-003
3,629432e+003;-1,425437e-003
3,631360e+003;-1,133823e-003
3,633289e+003;-1,100113e-003
3,635217e+003;-2,023645e-003
3,637146e+003;-3,238543e-003
3,639074e+003;-3,170164e-003
3,641003e+003;-3,111972e-003
3,642931e+003;-2,598962e-003
3,644860e+003;-1,991356e-003
3,646788e+003;-2,053424e-003
3,648717e+003;-3,495683e-003
3,650645e+003;-1,897841e-003
3,652574e+003;-1,365294e-003
3,654502e+003;-1,414373e-003
3,656431e+003;-1,545270e-003
3,658359e+003;-1,865147e-003
3,660288e+003;-1,820770e-003
3,662216e+003;-1,790314e-003
3,664145e+003;-1,236920e-003
3,666073e+003;-1,114986e-003
3,668002e+003;-1,864487e-003
3,669930e+003;-2,285559e-003
3,671859e+003;-1,463547e-003
3,673787e+003;-2,423870e-003
3,675716e+003;-1,639455e-003
3,677644e+003;-4,557514e-004
3,679573e+003;-1,417742e-003
3,681501e+003;-1,343625e-003
3,683430e+003;-1,162904e-003
3,685358e+003;-1,714974e-003
3,687287e+003;-8,952530e-004
3,689215e+003;-1,348844e-003
3,691144e+003;-1,354460e-003
3,693072e+003;4,595934e-005
3,695001e+003;-6,066911e-004
3,696929e+003;-1,317629e-003
3,698858e+003;-1,449017e-003
3,700786e+003;-1,161252e-003
3,702715e+003;-6,380241e-004
3,704643e+003;-1,130882e-003
3,706572e+003;-1,172487e-003
3,708500e+003;-1,204870e-003
3,710429e+003;-2,147269e-003
3,712357e+003;-2,342246e-003
3,714286e+003;-1,280795e-003
3,716214e+003;-1,055758e-003
3,718143e+003;-1,888009e-003
3,720071e+003;-1,907242e-003
3,722000e+003;-9,971829e-004
3,723928e+003;-8,919795e-004
3,725857e+003;-1,428574e-003
3,727785e+003;-1,686755e-003
3,729714e+003;-9,317892e-004
3,731642e+003;-2,160465e-004
3,733571e+003;-7,415690e-004
3,735499e+003;-1,555365e-004
3,737427e+003;-1,119216e-003
3,739356e+003;-1,209298e-003
3,741285e+003;-2,702565e-004
3,743213e+003;-2,281673e-004
3,745142e+003;-1,310526e-003
3,747070e+003;-1,398587e-003
3,748999e+003;-3,310397e-003
3,750927e+003;-2,565465e-003
3,752855e+003;-9,124469e-004
3,754784e+003;-1,075457e-003
3,756713e+003;-2,336281e-003
3,758641e+003;-1,814633e-003
3,760570e+003;-2,928724e-004
3,762498e+003;3,247148e-006
3,764427e+003;-2,306179e-004
3,766355e+003;-8,613923e-004
3,768283e+003;-1,004191e-003
3,770212e+003;-1,726690e-003
3,772141e+003;-1,650612e-003
3,774069e+003;-1,209760e-003
3,775998e+003;-1,229552e-003
3,777926e+003;-9,542053e-004
3,779854e+003;-1,901809e-004
3,781783e+003;2,345529e-004
3,783711e+003;-1,557297e-006
3,785640e+003;-1,617636e-003
3,787569e+003;-2,108098e-003
3,789497e+003;-1,140367e-003
3,791426e+003;-4,534014e-004
3,793354e+003;-6,443764e-004
3,795282e+003;-1,105633e-003
3,797211e+003;-9,422700e-004
3,799139e+003;-8,023612e-004
3,801068e+003;-2,122112e-003
3,802997e+003;-1,947685e-003
3,804925e+003;-2,297556e-003
3,806854e+003;-2,820469e-003
3,808782e+003;-2,121122e-003
3,810710e+003;-1,167663e-003
3,812639e+003;-8,217084e-004
3,814567e+003;-1,891440e-003
3,816496e+003;-2,386833e-003
3,818425e+003;-2,195733e-003
3,820353e+003;-2,295743e-003
3,822281e+003;-2,459751e-003
3,824210e+003;-1,574323e-003
3,826138e+003;-1,136038e-003
3,828067e+003;-1,160558e-003
3,829995e+003;-1,316935e-003
3,831924e+003;-1,422432e-003
3,833853e+003;-4,980172e-004
3,835781e+003;-3,582300e-004
3,837709e+003;-2,249565e-003
3,839638e+003;-2,443673e-003
3,841566e+003;-1,700320e-003
3,843495e+003;-5,711864e-004
3,845423e+003;-8,408894e-004
3,847352e+003;-8,864243e-004
3,849281e+003;-4,078872e-004
3,851209e+003;-1,300120e-003
3,853137e+003;-3,204634e-003
3,855066e+003;-3,005174e-003
3,856994e+003;-2,446506e-003
3,858923e+003;-1,659491e-003
3,860851e+003;-9,249451e-004
3,862780e+003;-1,278383e-003
3,864708e+003;-1,315713e-003
3,866637e+003;-1,273493e-003
3,868565e+003;-1,572276e-003
3,870494e+003;-8,201872e-004
3,872422e+003;-1,671407e-003
3,874351e+003;-2,240533e-003
3,876279e+003;-2,044586e-003
3,878208e+003;-2,537268e-003
3,880136e+003;-1,907572e-003
3,882065e+003;-1,227338e-003
3,883993e+003;-1,038702e-003
3,885922e+003;-5,359767e-004
3,887850e+003;-1,136203e-003
3,889779e+003;-1,049015e-003
3,891707e+003;-1,487132e-004
3,893636e+003;-6,931408e-004
3,895564e+003;-1,174140e-003
3,897493e+003;-7,978633e-004
3,899421e+003;-7,915001e-005
3,901350e+003;-4,810796e-005
3,903278e+003;-1,585944e-003
3,905207e+003;-1,466255e-003
3,907135e+003;-4,045107e-004
3,909064e+003;-7,531460e-004
3,910992e+003;-1,052651e-003
3,912921e+003;-1,236061e-003
3,914849e+003;-7,381951e-004
3,916778e+003;-3,452188e-004
3,918706e+003;-4,619079e-004
3,920635e+003;-5,807495e-004
3,922563e+003;-1,146580e-003
3,924492e+003;-1,563230e-003
3,926420e+003;-1,051097e-003
3,928349e+003;-3,875947e-004
3,930277e+003;-5,635755e-004
3,932206e+003;-1,158774e-003
3,934134e+003;-1,466915e-003
3,936063e+003;-1,628991e-003
3,937991e+003;-9,274248e-004
3,939920e+003;-2,127347e-004
3,941848e+003;-5,503215e-005
3,943777e+003;-6,731924e-004
3,945705e+003;-1,307917e-003
3,947634e+003;-1,078101e-003
3,949562e+003;-7,003194e-004
3,951491e+003;-1,068715e-003
3,953419e+003;-1,341247e-003
3,955348e+003;-1,196081e-003
3,957276e+003;-1,061774e-003
3,959205e+003;-1,630543e-003
3,961133e+003;-1,576040e-003
3,963062e+003;-1,379034e-003
3,964990e+003;-7,645242e-004
3,966919e+003;-9,455101e-004
3,968847e+003;-1,552335e-003
3,970776e+003;-1,597334e-003
3,972704e+003;-1,596178e-003
3,974633e+003;-1,164391e-003
3,976561e+003;-7,203327e-004
3,978490e+003;-1,299493e-003
3,980418e+003;-1,819846e-003
3,982347e+003;-1,241050e-003
3,984275e+003;-9,889184e-004
3,986204e+003;-1,157518e-003
3,988132e+003;-8,247840e-004
3,990061e+003;-1,503601e-003
3,991989e+003;-1,928520e-003
3,993918e+003;-6,476518e-004
3,995846e+003;-3,766700e-004
3,997775e+003;-4,443982e-004
3,999703e+003;-5,958050e-004
4,001632e+003;-7,024365e-004
4,003560e+003;-8,077190e-004
4,005489e+003;-1,021348e-003
4,007417e+003;-1,169877e-003
4,009346e+003;-1,087356e-003
4,011274e+003;-1,006671e-003
4,013203e+003;-6,403731e-004
4,015131e+003;-3,149573e-004
4,017060e+003;-4,719036e-004
4,018988e+003;-2,403210e-004
4,020917e+003;-6,257823e-004
4,022845e+003;-8,087442e-004
4,024774e+003;-9,489155e-004
4,026702e+003;-1,597334e-003
4,028631e+003;-2,367984e-003
4,030559e+003;-2,131509e-003
4,032488e+003;-1,255356e-003
4,034416e+003;-1,103914e-003
4,036345e+003;-1,526054e-003
4,038273e+003;-2,032450e-003
4,040202e+003;-2,251114e-003
4,042130e+003;-1,648071e-003
4,044059e+003;-1,634009e-003
4,045987e+003;-1,224959e-003
4,047916e+003;-5,362745e-004
4,049844e+003;-1,187820e-003
4,051773e+003;-1,803711e-003
4,053701e+003;-1,952237e-003
4,055630e+003;-1,743389e-003
4,057558e+003;-1,394656e-003
4,059487e+003;-1,127875e-003
4,061415e+003;-1,068450e-003
4,063344e+003;-8,291494e-004
4,065272e+003;-7,102435e-004
4,067201e+003;-3,622028e-004
4,069129e+003;3,942969e-006
4,071058e+003;-7,338288e-004
4,072986e+003;-1,231039e-003
4,074915e+003;-7,779527e-004
4,076843e+003;-7,588351e-004
4,078771e+003;-6,926777e-004
4,080700e+003;-7,838806e-005
4,082629e+003;-1,625914e-004
4,084557e+003;-3,310154e-004
4,086486e+003;-2,201861e-004
4,088414e+003;3,158491e-004
4,090343e+003;-9,539739e-004
4,092271e+003;-2,052831e-003
4,094199e+003;-1,206588e-003
4,096128e+003;-1,077903e-003
4,098057e+003;-1,421309e-003
4,099985e+003;-7,822855e-004
4,101914e+003;-1,148496e-003
4,103842e+003;-1,161252e-003
4,105771e+003;-1,363914e-004
4,107699e+003;-4,909345e-004
4,109627e+003;-5,054637e-004
4,111556e+003;-4,866320e-004
4,113484e+003;-9,504694e-004
4,115413e+003;-1,187688e-003
4,117341e+003;-1,175395e-003
4,119270e+003;-6,993270e-004
4,121199e+003;-3,827283e-004
4,123127e+003;-8,865235e-004
4,125056e+003;-7,264854e-004
4,126984e+003;-8,049409e-004
4,128913e+003;-1,046965e-003
4,130841e+003;-1,107913e-003
4,132770e+003;-1,234078e-003
4,134698e+003;-7,114013e-004
4,136626e+003;-6,489421e-004
4,138555e+003;-1,090793e-003
4,140483e+003;-6,570147e-004
4,142412e+003;-2,140594e-004
4,144340e+003;-7,111366e-004
4,146269e+003;-8,517032e-004
4,148197e+003;-7,386251e-004
4,150126e+003;-1,058105e-003
4,152055e+003;-1,026339e-003
4,153983e+003;-9,434603e-004
4,155912e+003;-1,663452e-003
4,157840e+003;-1,121496e-003
4,159769e+003;-8,720071e-004
4,161697e+003;-1,402418e-003
4,163625e+003;-1,255917e-003
4,165554e+003;-1,015001e-003
4,167482e+003;-1,376193e-003
4,169411e+003;-1,644275e-003
4,171339e+003;-1,414803e-003
4,173268e+003;-8,357305e-004
4,175196e+003;-7,202335e-004
4,177125e+003;-1,076879e-003
4,179053e+003;-1,180749e-003
4,180982e+003;-1,262690e-003
4,182911e+003;-1,180352e-003
4,184839e+003;-1,537841e-003
4,186768e+003;-1,340322e-003
4,188696e+003;-1,210818e-003
4,190625e+003;-7,940929e-004
4,192553e+003;-5,161865e-004
4,194481e+003;-7,067700e-004
4,196410e+003;-1,018571e-003
4,198338e+003;-1,774937e-003
4,200267e+003;-1,748009e-003
4,202195e+003;-1,125495e-003
4,204124e+003;-2,771440e-004
4,206052e+003;-7,008818e-004
4,207981e+003;-1,395383e-003
4,209909e+003;-1,405919e-003
4,211838e+003;-1,459485e-003
4,213767e+003;-9,989680e-004
4,215695e+003;-4,676670e-004
4,217624e+003;-7,715362e-004
4,219552e+003;-1,317563e-003
4,221480e+003;-7,227475e-004
4,223409e+003;-7,007495e-004
4,225337e+003;-1,074598e-003
4,227266e+003;-5,098654e-004
4,229194e+003;-3,427358e-004
4,231123e+003;-1,218087e-003
4,233051e+003;-1,672001e-003
4,234980e+003;-1,195750e-003
4,236908e+003;-1,140036e-003
4,238837e+003;-1,410476e-003
4,240765e+003;-7,942252e-004
4,242694e+003;2,869503e-005
4,244623e+003;-3,684598e-004
4,246551e+003;-1,081605e-003
4,248479e+003;-7,780189e-004
4,250408e+003;-3,639574e-004
4,252336e+003;-8,518024e-004
4,254265e+003;-1,081506e-003
4,256193e+003;-1,033843e-003
4,258122e+003;-1,003365e-003
4,260050e+003;-2,202722e-003
4,261979e+003;-2,619086e-003
4,263907e+003;-1,478407e-003
4,265836e+003;-6,725639e-004
4,267764e+003;-9,453117e-004
4,269693e+003;1,391853e-004
4,271621e+003;1,094271e-003
4,273550e+003;-2,527723e-004
4,275479e+003;-1,484251e-003
4,277407e+003;-1,068450e-003
4,279335e+003;-1,333650e-003
4,281264e+003;-2,308169e-003
4,283192e+003;-1,910871e-003
4,285121e+003;-1,209628e-003
4,287049e+003;-9,550318e-004
4,288978e+003;-1,117927e-003
4,290906e+003;-2,281439e-003
4,292835e+003;-1,422597e-003
4,294763e+003;-5,153922e-004
4,296692e+003;-1,326184e-003
4,298620e+003;-1,931390e-003
4,300549e+003;-2,122639e-003
4,302477e+003;-1,590830e-003
4,304406e+003;-4,766697e-004
4,306334e+003;2,242096e-004
4,308263e+003;1,366331e-004
4,310191e+003;-8,400627e-004
4,312120e+003;-1,587991e-003
4,314048e+003;-9,884555e-004
4,315977e+003;1,172961e-005
4,317905e+003;-2,934353e-004
4,319834e+003;-1,315151e-003
4,321762e+003;-1,905824e-003
4,323691e+003;-4,258286e-004
4,325619e+003;-3,571702e-005
4,327548e+003;-4,220882e-004
4,329476e+003;-8,334155e-004
4,331405e+003;-5,975918e-004
4,333333e+003;-5,318400e-004
4,335262e+003;-1,292060e-003
4,337190e+003;-1,968729e-003
4,339119e+003;-2,517305e-003
4,341047e+003;-2,673326e-003
4,342976e+003;-2,771284e-003
4,344904e+003;-2,216996e-003
4,346833e+003;-1,075325e-003
4,348761e+003;5,319945e-004
4,350690e+003;-1,787876e-004
4,352618e+003;-1,192182e-003
4,354547e+003;-1,036388e-003
4,356475e+003;-1,639059e-003
4,358404e+003;-1,788664e-003
4,360332e+003;-1,412986e-003
4,362261e+003;-1,449149e-003
4,364189e+003;-5,765139e-004
4,366118e+003;-4,291388e-004
4,368046e+003;-8,617230e-004
4,369975e+003;-1,686095e-003
4,371903e+003;-2,565168e-003
4,373832e+003;-1,936338e-003
4,375760e+003;-1,870986e-003
4,377688e+003;-1,502512e-003
4,379617e+003;-1,221226e-003
4,381546e+003;-1,863662e-003
4,383474e+003;-1,826412e-003
4,385403e+003;-1,715733e-003
4,387331e+003;-2,356813e-003
4,389260e+003;-1,747613e-003
4,391188e+003;-8,981958e-004
4,393117e+003;-5,777383e-004
4,395045e+003;-7,203658e-004
4,396974e+003;-8,913843e-004
4,398902e+003;-6,641938e-004
4,400831e+003;1,898622e-005
4,402759e+003;-5,525891e-004
4,404688e+003;-1,114986e-003
4,406616e+003;-1,391453e-003
4,408544e+003;-1,054568e-003
4,410473e+003;-5,798560e-004
4,412402e+003;-7,179510e-004
4,414330e+003;-9,400548e-004
4,416259e+003;-1,163169e-003
4,418187e+003;-9,434933e-004
4,420116e+003;-8,266360e-004
4,422044e+003;-1,026769e-003
4,423973e+003;-1,358423e-003
4,425901e+003;-1,219342e-003
4,427830e+003;-1,270784e-003
4,429758e+003;-1,116473e-003
4,431687e+003;-1,114523e-003
4,433615e+003;-1,411401e-003
4,435543e+003;-1,459287e-003
4,437472e+003;-4,996720e-004
4,439400e+003;-5,491476e-004
4,441329e+003;-2,136553e-003
4,443258e+003;-2,357604e-003
4,445186e+003;-1,041644e-003
4,447115e+003;-2,137282e-004
4,449043e+003;-3,479337e-004
4,450972e+003;6,213077e-005
4,452900e+003;2,909149e-004
4,454829e+003;-4,074238e-004
4,456757e+003;-1,206258e-003
4,458686e+003;-1,012191e-003
4,460614e+003;-2,834024e-004
4,462542e+003;-9,382364e-004
4,464471e+003;-1,381148e-003
4,466399e+003;-5,762161e-004
4,468328e+003;-1,132964e-003
4,470256e+003;-2,560227e-003
4,472185e+003;-1,730122e-003
4,474113e+003;-1,385574e-003
4,476042e+003;-2,377541e-003
4,477971e+003;-1,844427e-003
4,479899e+003;-1,714974e-003
4,481828e+003;-1,477812e-003
4,483756e+003;-5,646675e-004
4,485685e+003;-7,768282e-004
4,487613e+003;-1,899655e-003
4,489542e+003;-1,929839e-003
4,491470e+003;-1,649853e-003
4,493398e+003;-1,078928e-003
4,495327e+003;-1,080283e-003
4,497255e+003;-1,048883e-003
4,499184e+003;-2,092534e-003
