[Measurement conditions]
Sample identification,
Comment - 1,"Configuration=Flat Samole Stage, Owner=User-1, Creation date=26-10-2009 9:12:11"
Comment - 2,"Goniometer=PW3050/60 (Theta/Theta); Minimum step size 2Theta:0.001; Minimum step size Omega:0.001"
Comment - 3,"Sample stage=PW3071/xx Bracket"
Comment - 4,"Diffractometer system=XPERT-PRO"
Comment - 5,"Measurement program=lixo, Owner=AnaP, Creation date=26-07-2013 11:02:14"
Comment - 6,"Fine Calibration Offset for 2Theta = 0.021 deg"
Anode material,Cu
K-Alpha1 wavelength,1.5405980
K-Alpha2 wavelength,1.5444260
Ratio K-Alpha2/K-Alpha1,0.500
Divergence slit,Fixed,0.76mm
Monochromator used,NO
Generator voltage, 45
Tube current, 40
File date and time,29-Jun-2017 13:16
Unit cell,
h k l, 0 0 0
Scan axis,Gonio
Scan range,25.012999996,69.999736084
Scan step size,0.0167113
No. of points, 2692
Scan type,CONTINUOUS
Time per step,29.845
[Scan points]
Angle,Intensity
25.021355630,2484.0
25.038066899,2416.0
25.054778168,2449.0
25.071489437,2355.0
25.088200706,2375.0
25.104911975,2344.0
25.121623244,2309.0
25.138334513,2357.0
25.155045782,2386.0
25.171757051,2305.0
25.188468320,2262.0
25.205179589,2387.0
25.221890858,2355.0
25.238602127,2355.0
25.255313396,2386.0
25.272024665,2320.0
25.288735934,2378.0
25.305447203,2255.0
25.322158472,2283.0
25.338869741,2241.0
25.355581010,2307.0
25.372292279,2289.0
25.389003548,2246.0
25.405714816,2241.0
25.422426085,2214.0
25.439137354,2325.0
25.455848623,2290.0
25.472559892,2296.0
25.489271161,2237.0
25.505982430,2294.0
25.522693699,2221.0
25.539404968,2331.0
25.556116237,2214.0
25.572827506,2263.0
25.589538775,2250.0
25.606250044,2241.0
25.622961313,2228.0
25.639672582,2207.0
25.656383851,2293.0
25.673095120,2241.0
25.689806389,2125.0
25.706517658,2253.0
25.723228927,2268.0
25.739940196,2261.0
25.756651465,2143.0
25.773362734,2190.0
25.790074003,2152.0
25.806785272,2131.0
25.823496541,2133.0
25.840207810,2157.0
25.856919079,2193.0
25.873630348,2106.0
25.890341617,2138.0
25.907052886,2148.0
25.923764155,2167.0
25.940475424,2183.0
25.957186693,2045.0
25.973897962,2205.0
25.990609231,2151.0
26.007320500,2068.0
26.024031769,2100.0
26.040743038,2070.0
26.057454307,2030.0
26.074165576,2102.0
26.090876845,2002.0
26.107588114,2164.0
26.124299383,2031.0
26.141010652,2237.0
26.157721921,2188.0
26.174433189,2113.0
26.191144458,2088.0
26.207855727,1999.0
26.224566996,2092.0
26.241278265,2039.0
26.257989534,2071.0
26.274700803,2008.0
26.291412072,1981.0
26.308123341,1988.0
26.324834610,2079.0
26.341545879,1987.0
26.358257148,2008.0
26.374968417,2085.0
26.391679686,2025.0
26.408390955,2066.0
26.425102224,2022.0
26.441813493,2055.0
26.458524762,2026.0
26.475236031,2042.0
26.491947300,2037.0
26.508658569,1988.0
26.525369838,1975.0
26.542081107,2047.0
26.558792376,2004.0
26.575503645,2011.0
26.592214914,2062.0
26.608926183,2012.0
26.625637452,2060.0
26.642348721,2128.0
26.659059990,1950.0
26.675771259,1984.0
26.692482528,2014.0
26.709193797,2036.0
26.725905066,1968.0
26.742616335,1932.0
26.759327604,1963.0
26.776038873,1930.0
26.792750142,1909.0
26.809461411,1986.0
26.826172680,1970.0
26.842883949,2031.0
26.859595218,1957.0
26.876306487,1960.0
26.893017756,1854.0
26.909729025,1879.0
26.926440294,1895.0
26.943151562,1925.0
26.959862831,1908.0
26.976574100,1969.0
26.993285369,1916.0
27.009996638,1961.0
27.026707907,1953.0
27.043419176,2000.0
27.060130445,1909.0
27.076841714,1884.0
27.093552983,1882.0
27.110264252,1934.0
27.126975521,1923.0
27.143686790,1934.0
27.160398059,1865.0
27.177109328,1882.0
27.193820597,1902.0
27.210531866,1783.0
27.227243135,1826.0
27.243954404,1840.0
27.260665673,1945.0
27.277376942,1830.0
27.294088211,1844.0
27.310799480,1834.0
27.327510749,1885.0
27.344222018,1761.0
27.360933287,1878.0
27.377644556,1887.0
27.394355825,1865.0
27.411067094,1728.0
27.427778363,1897.0
27.444489632,1774.0
27.461200901,1897.0
27.477912170,1828.0
27.494623439,1890.0
27.511334708,1848.0
27.528045977,1801.0
27.544757246,1858.0
27.561468515,1863.0
27.578179784,1839.0
27.594891053,1777.0
27.611602322,1851.0
27.628313591,1765.0
27.645024860,1777.0
27.661736129,1770.0
27.678447398,1818.0
27.695158666,1735.0
27.711869935,1801.0
27.728581204,1805.0
27.745292473,1814.0
27.762003742,1810.0
27.778715011,1767.0
27.795426280,1764.0
27.812137549,1763.0
27.828848818,1815.0
27.845560087,1805.0
27.862271356,1802.0
27.878982625,1745.0
27.895693894,1759.0
27.912405163,1714.0
27.929116432,1718.0
27.945827701,1775.0
27.962538970,1737.0
27.979250239,1779.0
27.995961508,1736.0
28.012672777,1736.0
28.029384046,1691.0
28.046095315,1693.0
28.062806584,1697.0
28.079517853,1763.0
28.096229122,1673.0
28.112940391,1728.0
28.129651660,1718.0
28.146362929,1714.0
28.163074198,1687.0
28.179785467,1719.0
28.196496736,1748.0
28.213208005,1742.0
28.229919274,1788.0
28.246630543,1678.0
28.263341812,1674.0
28.280053081,1654.0
28.296764350,1673.0
28.313475619,1718.0
28.330186888,1747.0
28.346898157,1694.0
28.363609426,1709.0
28.380320695,1673.0
28.397031964,1686.0
28.413743233,1691.0
28.430454502,1638.0
28.447165771,1678.0
28.463877039,1650.0
28.480588308,1632.0
28.497299577,1669.0
28.514010846,1591.0
28.530722115,1653.0
28.547433384,1613.0
28.564144653,1599.0
28.580855922,1629.0
28.597567191,1632.0
28.614278460,1671.0
28.630989729,1654.0
28.647700998,1671.0
28.664412267,1637.0
28.681123536,1668.0
28.697834805,1618.0
28.714546074,1684.0
28.731257343,1681.0
28.747968612,1762.0
28.764679881,1621.0
28.781391150,1571.0
28.798102419,1655.0
28.814813688,1615.0
28.831524957,1656.0
28.848236226,1628.0
28.864947495,1597.0
28.881658764,1652.0
28.898370033,1594.0
28.915081302,1617.0
28.931792571,1615.0
28.948503840,1627.0
28.965215109,1583.0
28.981926378,1602.0
28.998637647,1603.0
29.015348916,1563.0
29.032060185,1687.0
29.048771454,1570.0
29.065482723,1616.0
29.082193992,1577.0
29.098905261,1531.0
29.115616530,1504.0
29.132327799,1656.0
29.149039068,1577.0
29.165750337,1641.0
29.182461606,1587.0
29.199172875,1599.0
29.215884143,1630.0
29.232595412,1558.0
29.249306681,1589.0
29.266017950,1626.0
29.282729219,1607.0
29.299440488,1605.0
29.316151757,1690.0
29.332863026,1605.0
29.349574295,1551.0
29.366285564,1596.0
29.382996833,1537.0
29.399708102,1537.0
29.416419371,1572.0
29.433130640,1609.0
29.449841909,1683.0
29.466553178,1664.0
29.483264447,1652.0
29.499975716,1652.0
29.516686985,1604.0
29.533398254,1673.0
29.550109523,1719.0
29.566820792,1589.0
29.583532061,1634.0
29.600243330,1562.0
29.616954599,1577.0
29.633665868,1539.0
29.650377137,1554.0
29.667088406,1646.0
29.683799675,1668.0
29.700510944,1594.0
29.717222213,1548.0
29.733933482,1555.0
29.750644751,1671.0
29.767356020,1584.0
29.784067289,1534.0
29.800778558,1555.0
29.817489827,1648.0
29.834201096,1593.0
29.850912365,1587.0
29.867623634,1617.0
29.884334903,1563.0
29.901046172,1551.0
29.917757441,1521.0
29.934468710,1475.0
29.951179979,1500.0
29.967891248,1451.0
29.984602516,1603.0
30.001313785,1551.0
30.018025054,1544.0
30.034736323,1511.0
30.051447592,1482.0
30.068158861,1427.0
30.084870130,1415.0
30.101581399,1489.0
30.118292668,1519.0
30.135003937,1505.0
30.151715206,1469.0
30.168426475,1513.0
30.185137744,1507.0
30.201849013,1512.0
30.218560282,1549.0
30.235271551,1449.0
30.251982820,1488.0
30.268694089,1553.0
30.285405358,1424.0
30.302116627,1510.0
30.318827896,1437.0
30.335539165,1498.0
30.352250434,1457.0
30.368961703,1468.0
30.385672972,1449.0
30.402384241,1483.0
30.419095510,1448.0
30.435806779,1462.0
30.452518048,1490.0
30.469229317,1457.0
30.485940586,1409.0
30.502651855,1460.0
30.519363124,1468.0
30.536074393,1440.0
30.552785662,1380.0
30.569496931,1527.0
30.586208200,1479.0
30.602919469,1461.0
30.619630738,1441.0
30.636342007,1464.0
30.653053276,1423.0
30.669764545,1432.0
30.686475814,1440.0
30.703187083,1469.0
30.719898352,1489.0
30.736609621,1458.0
30.753320889,1373.0
30.770032158,1358.0
30.786743427,1462.0
30.803454696,1465.0
30.820165965,1404.0
30.836877234,1489.0
30.853588503,1401.0
30.870299772,1390.0
30.887011041,1405.0
30.903722310,1348.0
30.920433579,1383.0
30.937144848,1367.0
30.953856117,1378.0
30.970567386,1387.0
30.987278655,1371.0
31.003989924,1406.0
31.020701193,1478.0
31.037412462,1437.0
31.054123731,1355.0
31.070835000,1496.0
31.087546269,1418.0
31.104257538,1405.0
31.120968807,1380.0
31.137680076,1374.0
31.154391345,1417.0
31.171102614,1363.0
31.187813883,1434.0
31.204525152,1394.0
31.221236421,1399.0
31.237947690,1393.0
31.254658959,1421.0
31.271370228,1456.0
31.288081497,1409.0
31.304792766,1337.0
31.321504035,1403.0
31.338215304,1361.0
31.354926573,1365.0
31.371637842,1430.0
31.388349111,1365.0
31.405060380,1366.0
31.421771649,1357.0
31.438482918,1404.0
31.455194187,1364.0
31.471905456,1373.0
31.488616725,1379.0
31.505327993,1323.0
31.522039262,1360.0
31.538750531,1437.0
31.555461800,1345.0
31.572173069,1443.0
31.588884338,1285.0
31.605595607,1383.0
31.622306876,1336.0
31.639018145,1282.0
31.655729414,1427.0
31.672440683,1386.0
31.689151952,1322.0
31.705863221,1341.0
31.722574490,1306.0
31.739285759,1388.0
31.755997028,1418.0
31.772708297,1405.0
31.789419566,1396.0
31.806130835,1354.0
31.822842104,1390.0
31.839553373,1344.0
31.856264642,1355.0
31.872975911,1349.0
31.889687180,1353.0
31.906398449,1360.0
31.923109718,1348.0
31.939820987,1340.0
31.956532256,1382.0
31.973243525,1308.0
31.989954794,1335.0
32.006666063,1347.0
32.023377332,1341.0
32.040088601,1331.0
32.056799870,1401.0
32.073511139,1403.0
32.090222408,1303.0
32.106933677,1297.0
32.123644946,1341.0
32.140356215,1376.0
32.157067484,1341.0
32.173778753,1408.0
32.190490022,1393.0
32.207201291,1355.0
32.223912560,1371.0
32.240623829,1374.0
32.257335098,1368.0
32.274046366,1355.0
32.290757635,1242.0
32.307468904,1278.0
32.324180173,1316.0
32.340891442,1340.0
32.357602711,1347.0
32.374313980,1293.0
32.391025249,1314.0
32.407736518,1325.0
32.424447787,1397.0
32.441159056,1303.0
32.457870325,1358.0
32.474581594,1383.0
32.491292863,1312.0
32.508004132,1345.0
32.524715401,1350.0
32.541426670,1357.0
32.558137939,1303.0
32.574849208,1348.0
32.591560477,1254.0
32.608271746,1300.0
32.624983015,1351.0
32.641694284,1337.0
32.658405553,1339.0
32.675116822,1351.0
32.691828091,1345.0
32.708539360,1286.0
32.725250629,1326.0
32.741961898,1274.0
32.758673167,1334.0
32.775384436,1294.0
32.792095705,1312.0
32.808806974,1391.0
32.825518243,1306.0
32.842229512,1261.0
32.858940781,1334.0
32.875652050,1331.0
32.892363319,1367.0
32.909074588,1242.0
32.925785857,1289.0
32.942497126,1262.0
32.959208395,1269.0
32.975919664,1349.0
32.992630933,1267.0
33.009342202,1318.0
33.026053470,1269.0
33.042764739,1316.0
33.059476008,1219.0
33.076187277,1228.0
33.092898546,1239.0
33.109609815,1311.0
33.126321084,1269.0
33.143032353,1264.0
33.159743622,1316.0
33.176454891,1350.0
33.193166160,1265.0
33.209877429,1271.0
33.226588698,1290.0
33.243299967,1182.0
33.260011236,1317.0
33.276722505,1266.0
33.293433774,1277.0
33.310145043,1251.0
33.326856312,1295.0
33.343567581,1247.0
33.360278850,1271.0
33.376990119,1266.0
33.393701388,1244.0
33.410412657,1223.0
33.427123926,1256.0
33.443835195,1269.0
33.460546464,1278.0
33.477257733,1248.0
33.493969002,1275.0
33.510680271,1160.0
33.527391540,1323.0
33.544102809,1282.0
33.560814078,1153.0
33.577525347,1184.0
33.594236616,1229.0
33.610947885,1255.0
33.627659154,1223.0
33.644370423,1319.0
33.661081692,1229.0
33.677792961,1225.0
33.694504230,1265.0
33.711215499,1264.0
33.727926768,1192.0
33.744638037,1296.0
33.761349306,1211.0
33.778060575,1207.0
33.794771843,1185.0
33.811483112,1282.0
33.828194381,1264.0
33.844905650,1184.0
33.861616919,1226.0
33.878328188,1239.0
33.895039457,1266.0
33.911750726,1248.0
33.928461995,1151.0
33.945173264,1247.0
33.961884533,1233.0
33.978595802,1242.0
33.995307071,1240.0
34.012018340,1327.0
34.028729609,1256.0
34.045440878,1292.0
34.062152147,1198.0
34.078863416,1282.0
34.095574685,1228.0
34.112285954,1240.0
34.128997223,1195.0
34.145708492,1233.0
34.162419761,1240.0
34.179131030,1186.0
34.195842299,1240.0
34.212553568,1196.0
34.229264837,1222.0
34.245976106,1208.0
34.262687375,1275.0
34.279398644,1191.0
34.296109913,1277.0
34.312821182,1243.0
34.329532451,1300.0
34.346243720,1171.0
34.362954989,1195.0
34.379666258,1226.0
34.396377527,1208.0
34.413088796,1228.0
34.429800065,1240.0
34.446511334,1266.0
34.463222603,1235.0
34.479933872,1257.0
34.496645141,1247.0
34.513356410,1276.0
34.530067679,1293.0
34.546778948,1302.0
34.563490216,1235.0
34.580201485,1270.0
34.596912754,1263.0
34.613624023,1238.0
34.630335292,1206.0
34.647046561,1222.0
34.663757830,1241.0
34.680469099,1234.0
34.697180368,1249.0
34.713891637,1322.0
34.730602906,1254.0
34.747314175,1227.0
34.764025444,1278.0
34.780736713,1283.0
34.797447982,1173.0
34.814159251,1226.0
34.830870520,1293.0
34.847581789,1305.0
34.864293058,1299.0
34.881004327,1255.0
34.897715596,1296.0
34.914426865,1264.0
34.931138134,1207.0
34.947849403,1328.0
34.964560672,1300.0
34.981271941,1310.0
34.997983210,1254.0
35.014694479,1245.0
35.031405748,1269.0
35.048117017,1391.0
35.064828286,1289.0
35.081539555,1345.0
35.098250824,1340.0
35.114962093,1290.0
35.131673362,1300.0
35.148384631,1368.0
35.165095900,1360.0
35.181807169,1299.0
35.198518438,1366.0
35.215229707,1349.0
35.231940976,1411.0
35.248652245,1436.0
35.265363514,1386.0
35.282074783,1387.0
35.298786052,1372.0
35.315497320,1432.0
35.332208589,1444.0
35.348919858,1473.0
35.365631127,1519.0
35.382342396,1446.0
35.399053665,1437.0
35.415764934,1459.0
35.432476203,1457.0
35.449187472,1518.0
35.465898741,1508.0
35.482610010,1450.0
35.499321279,1530.0
35.516032548,1554.0
35.532743817,1461.0
35.549455086,1507.0
35.566166355,1498.0
35.582877624,1577.0
35.599588893,1559.0
35.616300162,1462.0
35.633011431,1516.0
35.649722700,1631.0
35.666433969,1567.0
35.683145238,1543.0
35.699856507,1515.0
35.716567776,1490.0
35.733279045,1560.0
35.749990314,1574.0
35.766701583,1506.0
35.783412852,1524.0
35.800124121,1588.0
35.816835390,1634.0
35.833546659,1465.0
35.850257928,1603.0
35.866969197,1541.0
35.883680466,1497.0
35.900391735,1517.0
35.917103004,1584.0
35.933814273,1568.0
35.950525542,1630.0
35.967236811,1679.0
35.983948080,1664.0
36.000659349,1602.0
36.017370618,1582.0
36.034081887,1676.0
36.050793156,1690.0
36.067504425,1643.0
36.084215693,1712.0
36.100926962,1683.0
36.117638231,1806.0
36.134349500,1833.0
36.151060769,1880.0
36.167772038,1857.0
36.184483307,1909.0
36.201194576,1997.0
36.217905845,1949.0
36.234617114,2140.0
36.251328383,2098.0
36.268039652,2191.0
36.284750921,2304.0
36.301462190,2307.0
36.318173459,2352.0
36.334884728,2469.0
36.351595997,2482.0
36.368307266,2473.0
36.385018535,2711.0
36.401729804,2781.0
36.418441073,2786.0
36.435152342,2878.0
36.451863611,2966.0
36.468574880,3006.0
36.485286149,2939.0
36.501997418,2880.0
36.518708687,3001.0
36.535419956,2989.0
36.552131225,2971.0
36.568842494,2918.0
36.585553763,2840.0
36.602265032,2874.0
36.618976301,2825.0
36.635687570,2745.0
36.652398839,2689.0
36.669110108,2598.0
36.685821377,2531.0
36.702532646,2366.0
36.719243915,2277.0
36.735955184,2319.0
36.752666453,2198.0
36.769377722,2218.0
36.786088991,2089.0
36.802800260,2096.0
36.819511529,1981.0
36.836222797,1920.0
36.852934066,1811.0
36.869645335,1804.0
36.886356604,1850.0
36.903067873,1734.0
36.919779142,1617.0
36.936490411,1759.0
36.953201680,1562.0
36.969912949,1654.0
36.986624218,1570.0
37.003335487,1603.0
37.020046756,1552.0
37.036758025,1485.0
37.053469294,1407.0
37.070180563,1463.0
37.086891832,1450.0
37.103603101,1362.0
37.120314370,1422.0
37.137025639,1402.0
37.153736908,1348.0
37.170448177,1292.0
37.187159446,1372.0
37.203870715,1333.0
37.220581984,1278.0
37.237293253,1295.0
37.254004522,1261.0
37.270715791,1286.0
37.287427060,1281.0
37.304138329,1284.0
37.320849598,1261.0
37.337560867,1260.0
37.354272136,1235.0
37.370983405,1243.0
37.387694674,1211.0
37.404405943,1252.0
37.421117212,1253.0
37.437828481,1166.0
37.454539750,1184.0
37.471251019,1182.0
37.487962288,1094.0
37.504673557,1154.0
37.521384826,1188.0
37.538096095,1211.0
37.554807364,1175.0
37.571518633,1181.0
37.588229902,1178.0
37.604941170,1154.0
37.621652439,1197.0
37.638363708,1116.0
37.655074977,1179.0
37.671786246,1201.0
37.688497515,1165.0
37.705208784,1112.0
37.721920053,1193.0
37.738631322,1154.0
37.755342591,1225.0
37.772053860,1130.0
37.788765129,1105.0
37.805476398,1152.0
37.822187667,1103.0
37.838898936,1229.0
37.855610205,1124.0
37.872321474,1147.0
37.889032743,1194.0
37.905744012,1144.0
37.922455281,1141.0
37.939166550,1148.0
37.955877819,1124.0
37.972589088,1192.0
37.989300357,1037.0
38.006011626,1170.0
38.022722895,1164.0
38.039434164,1171.0
38.056145433,1109.0
38.072856702,1170.0
38.089567971,1182.0
38.106279240,1113.0
38.122990509,1113.0
38.139701778,1151.0
38.156413047,1118.0
38.173124316,1134.0
38.189835585,1219.0
38.206546854,1186.0
38.223258123,1138.0
38.239969392,1145.0
38.256680661,1144.0
38.273391930,1189.0
38.290103199,1202.0
38.306814468,1230.0
38.323525737,1104.0
38.340237006,1178.0
38.356948275,1210.0
38.373659543,1142.0
38.390370812,1228.0
38.407082081,1152.0
38.423793350,1193.0
38.440504619,1164.0
38.457215888,1137.0
38.473927157,1170.0
38.490638426,1136.0
38.507349695,1240.0
38.524060964,1185.0
38.540772233,1134.0
38.557483502,1143.0
38.574194771,1238.0
38.590906040,1216.0
38.607617309,1235.0
38.624328578,1183.0
38.641039847,1230.0
38.657751116,1167.0
38.674462385,1156.0
38.691173654,1192.0
38.707884923,1210.0
38.724596192,1192.0
38.741307461,1203.0
38.758018730,1211.0
38.774729999,1205.0
38.791441268,1197.0
38.808152537,1115.0
38.824863806,1160.0
38.841575075,1180.0
38.858286344,1193.0
38.874997613,1193.0
38.891708882,1186.0
38.908420151,1166.0
38.925131420,1151.0
38.941842689,1221.0
38.958553958,1139.0
38.975265227,1168.0
38.991976496,1164.0
39.008687765,1207.0
39.025399034,1129.0
39.042110303,1161.0
39.058821572,1124.0
39.075532841,1125.0
39.092244110,1099.0
39.108955379,1141.0
39.125666647,1089.0
39.142377916,1157.0
39.159089185,1109.0
39.175800454,1145.0
39.192511723,1182.0
39.209222992,1090.0
39.225934261,1101.0
39.242645530,1073.0
39.259356799,1080.0
39.276068068,1117.0
39.292779337,1095.0
39.309490606,1032.0
39.326201875,1050.0
39.342913144,1036.0
39.359624413,997.0
39.376335682,1056.0
39.393046951,1042.0
39.409758220,986.0
39.426469489,979.0
39.443180758,1059.0
39.459892027,1071.0
39.476603296,1046.0
39.493314565,1033.0
39.510025834,1036.0
39.526737103,1017.0
39.543448372,964.0
39.560159641,1091.0
39.576870910,1006.0
39.593582179,903.0
39.610293448,978.0
39.627004717,976.0
39.643715986,1004.0
39.660427255,971.0
39.677138524,1063.0
39.693849793,1021.0
39.710561062,998.0
39.727272331,1009.0
39.743983600,964.0
39.760694869,949.0
39.777406138,952.0
39.794117407,992.0
39.810828676,1005.0
39.827539945,979.0
39.844251214,989.0
39.860962483,959.0
39.877673752,929.0
39.894385020,949.0
39.911096289,1002.0
39.927807558,936.0
39.944518827,975.0
39.961230096,961.0
39.977941365,950.0
39.994652634,966.0
40.011363903,944.0
40.028075172,1017.0
40.044786441,966.0
40.061497710,946.0
40.078208979,956.0
40.094920248,915.0
40.111631517,946.0
40.128342786,949.0
40.145054055,970.0
40.161765324,882.0
40.178476593,951.0
40.195187862,954.0
40.211899131,920.0
40.228610400,997.0
40.245321669,910.0
40.262032938,940.0
40.278744207,894.0
40.295455476,921.0
40.312166745,972.0
40.328878014,972.0
40.345589283,935.0
40.362300552,922.0
40.379011821,915.0
40.395723090,960.0
40.412434359,929.0
40.429145628,910.0
40.445856897,926.0
40.462568166,938.0
40.479279435,935.0
40.495990704,880.0
40.512701973,917.0
40.529413242,930.0
40.546124511,954.0
40.562835780,856.0
40.579547049,958.0
40.596258318,958.0
40.612969587,909.0
40.629680856,929.0
40.646392125,917.0
40.663103393,909.0
40.679814662,911.0
40.696525931,890.0
40.713237200,850.0
40.729948469,924.0
40.746659738,960.0
40.763371007,956.0
40.780082276,937.0
40.796793545,896.0
40.813504814,893.0
40.830216083,932.0
40.846927352,944.0
40.863638621,907.0
40.880349890,978.0
40.897061159,940.0
40.913772428,876.0
40.930483697,950.0
40.947194966,933.0
40.963906235,908.0
40.980617504,915.0
40.997328773,940.0
41.014040042,922.0
41.030751311,947.0
41.047462580,895.0
41.064173849,904.0
41.080885118,910.0
41.097596387,911.0
41.114307656,897.0
41.131018925,865.0
41.147730194,922.0
41.164441463,931.0
41.181152732,915.0
41.197864001,929.0
41.214575270,906.0
41.231286539,894.0
41.247997808,917.0
41.264709077,928.0
41.281420346,959.0
41.298131615,916.0
41.314842884,905.0
41.331554153,936.0
41.348265422,931.0
41.364976691,949.0
41.381687960,965.0
41.398399229,909.0
41.415110497,935.0
41.431821766,953.0
41.448533035,989.0
41.465244304,894.0
41.481955573,957.0
41.498666842,903.0
41.515378111,956.0
41.532089380,949.0
41.548800649,928.0
41.565511918,992.0
41.582223187,981.0
41.598934456,928.0
41.615645725,975.0
41.632356994,942.0
41.649068263,966.0
41.665779532,1091.0
41.682490801,1008.0
41.699202070,968.0
41.715913339,979.0
41.732624608,984.0
41.749335877,960.0
41.766047146,1007.0
41.782758415,952.0
41.799469684,995.0
41.816180953,1015.0
41.832892222,1057.0
41.849603491,989.0
41.866314760,1050.0
41.883026029,991.0
41.899737298,1077.0
41.916448567,1029.0
41.933159836,1044.0
41.949871105,1062.0
41.966582374,1015.0
41.983293643,1077.0
42.000004912,1061.0
42.016716181,1017.0
42.033427450,1045.0
42.050138719,1061.0
42.066849988,1087.0
42.083561257,1020.0
42.100272526,1111.0
42.116983795,1178.0
42.133695064,1170.0
42.150406333,1132.0
42.167117602,1144.0
42.183828870,1123.0
42.200540139,1229.0
42.217251408,1147.0
42.233962677,1215.0
42.250673946,1173.0
42.267385215,1165.0
42.284096484,1255.0
42.300807753,1219.0
42.317519022,1243.0
42.334230291,1238.0
42.350941560,1209.0
42.367652829,1236.0
42.384364098,1206.0
42.401075367,1224.0
42.417786636,1201.0
42.434497905,1229.0
42.451209174,1216.0
42.467920443,1183.0
42.484631712,1229.0
42.501342981,1181.0
42.518054250,1223.0
42.534765519,1196.0
42.551476788,1165.0
42.568188057,1183.0
42.584899326,1150.0
42.601610595,1162.0
42.618321864,1142.0
42.635033133,1160.0
42.651744402,1125.0
42.668455671,1056.0
42.685166940,1080.0
42.701878209,1059.0
42.718589478,1064.0
42.735300747,1113.0
42.752012016,994.0
42.768723285,1048.0
42.785434554,1054.0
42.802145823,1070.0
42.818857092,1042.0
42.835568361,1073.0
42.852279630,1032.0
42.868990899,1062.0
42.885702168,1019.0
42.902413437,1006.0
42.919124706,1014.0
42.935835974,999.0
42.952547243,995.0
42.969258512,960.0
42.985969781,959.0
43.002681050,905.0
43.019392319,948.0
43.036103588,1039.0
43.052814857,1021.0
43.069526126,998.0
43.086237395,989.0
43.102948664,964.0
43.119659933,977.0
43.136371202,912.0
43.153082471,952.0
43.169793740,971.0
43.186505009,936.0
43.203216278,980.0
43.219927547,961.0
43.236638816,975.0
43.253350085,987.0
43.270061354,956.0
43.286772623,1043.0
43.303483892,1044.0
43.320195161,1002.0
43.336906430,1004.0
43.353617699,1043.0
43.370328968,1085.0
43.387040237,1122.0
43.403751506,1099.0
43.420462775,1060.0
43.437174044,1123.0
43.453885313,999.0
43.470596582,1056.0
43.487307851,1088.0
43.504019120,1017.0
43.520730389,1050.0
43.537441658,1043.0
43.554152927,953.0
43.570864196,963.0
43.587575465,946.0
43.604286734,967.0
43.620998003,945.0
43.637709272,914.0
43.654420541,920.0
43.671131810,921.0
43.687843079,889.0
43.704554347,924.0
43.721265616,881.0
43.737976885,902.0
43.754688154,866.0
43.771399423,860.0
43.788110692,865.0
43.804821961,891.0
43.821533230,841.0
43.838244499,851.0
43.854955768,887.0
43.871667037,837.0
43.888378306,875.0
43.905089575,850.0
43.921800844,873.0
43.938512113,890.0
43.955223382,909.0
43.971934651,859.0
43.988645920,866.0
44.005357189,848.0
44.022068458,850.0
44.038779727,882.0
44.055490996,813.0
44.072202265,857.0
44.088913534,896.0
44.105624803,901.0
44.122336072,862.0
44.139047341,914.0
44.155758610,867.0
44.172469879,901.0
44.189181148,887.0
44.205892417,847.0
44.222603686,880.0
44.239314955,851.0
44.256026224,888.0
44.272737493,825.0
44.289448762,863.0
44.306160031,852.0
44.322871300,839.0
44.339582569,859.0
44.356293838,868.0
44.373005107,861.0
44.389716376,860.0
44.406427645,826.0
44.423138914,892.0
44.439850183,876.0
44.456561452,881.0
44.473272720,813.0
44.489983989,837.0
44.506695258,843.0
44.523406527,918.0
44.540117796,880.0
44.556829065,900.0
44.573540334,887.0
44.590251603,885.0
44.606962872,892.0
44.623674141,891.0
44.640385410,841.0
44.657096679,871.0
44.673807948,873.0
44.690519217,855.0
44.707230486,909.0
44.723941755,911.0
44.740653024,885.0
44.757364293,857.0
44.774075562,826.0
44.790786831,875.0
44.807498100,854.0
44.824209369,849.0
44.840920638,856.0
44.857631907,854.0
44.874343176,878.0
44.891054445,875.0
44.907765714,892.0
44.924476983,827.0
44.941188252,876.0
44.957899521,860.0
44.974610790,807.0
44.991322059,878.0
45.008033328,781.0
45.024744597,808.0
45.041455866,884.0
45.058167135,937.0
45.074878404,807.0
45.091589673,901.0
45.108300942,870.0
45.125012211,828.0
45.141723480,831.0
45.158434749,828.0
45.175146018,882.0
45.191857287,884.0
45.208568556,834.0
45.225279824,855.0
45.241991093,896.0
45.258702362,874.0
45.275413631,857.0
45.292124900,859.0
45.308836169,840.0
45.325547438,809.0
45.342258707,833.0
45.358969976,783.0
45.375681245,902.0
45.392392514,839.0
45.409103783,851.0
45.425815052,862.0
45.442526321,808.0
45.459237590,848.0
45.475948859,868.0
45.492660128,811.0
45.509371397,893.0
45.526082666,800.0
45.542793935,854.0
45.559505204,866.0
45.576216473,863.0
45.592927742,827.0
45.609639011,875.0
45.626350280,853.0
45.643061549,881.0
45.659772818,809.0
45.676484087,885.0
45.693195356,855.0
45.709906625,832.0
45.726617894,863.0
45.743329163,848.0
45.760040432,812.0
45.776751701,873.0
45.793462970,850.0
45.810174239,834.0
45.826885508,807.0
45.843596777,824.0
45.860308046,854.0
45.877019315,802.0
45.893730584,873.0
45.910441853,861.0
45.927153122,838.0
45.943864391,916.0
45.960575660,807.0
45.977286929,828.0
45.993998197,825.0
46.010709466,852.0
46.027420735,818.0
46.044132004,885.0
46.060843273,854.0
46.077554542,804.0
46.094265811,856.0
46.110977080,834.0
46.127688349,850.0
46.144399618,825.0
46.161110887,880.0
46.177822156,838.0
46.194533425,818.0
46.211244694,882.0
46.227955963,852.0
46.244667232,834.0
46.261378501,800.0
46.278089770,868.0
46.294801039,902.0
46.311512308,868.0
46.328223577,814.0
46.344934846,900.0
46.361646115,823.0
46.378357384,839.0
46.395068653,811.0
46.411779922,788.0
46.428491191,835.0
46.445202460,822.0
46.461913729,824.0
46.478624998,776.0
46.495336267,843.0
46.512047536,820.0
46.528758805,831.0
46.545470074,884.0
46.562181343,840.0
46.578892612,822.0
46.595603881,815.0
46.612315150,854.0
46.629026419,849.0
46.645737688,845.0
46.662448957,809.0
46.679160226,862.0
46.695871495,842.0
46.712582764,821.0
46.729294033,856.0
46.746005301,738.0
46.762716570,827.0
46.779427839,865.0
46.796139108,860.0
46.812850377,811.0
46.829561646,849.0
46.846272915,851.0
46.862984184,837.0
46.879695453,825.0
46.896406722,870.0
46.913117991,838.0
46.929829260,829.0
46.946540529,859.0
46.963251798,827.0
46.979963067,860.0
46.996674336,838.0
47.013385605,768.0
47.030096874,839.0
47.046808143,834.0
47.063519412,784.0
47.080230681,869.0
47.096941950,813.0
47.113653219,849.0
47.130364488,820.0
47.147075757,820.0
47.163787026,834.0
47.180498295,848.0
47.197209564,802.0
47.213920833,874.0
47.230632102,802.0
47.247343371,856.0
47.264054640,786.0
47.280765909,795.0
47.297477178,801.0
47.314188447,827.0
47.330899716,805.0
47.347610985,798.0
47.364322254,820.0
47.381033523,792.0
47.397744792,802.0
47.414456061,806.0
47.431167330,848.0
47.447878599,831.0
47.464589868,818.0
47.481301137,845.0
47.498012406,764.0
47.514723674,852.0
47.531434943,791.0
47.548146212,742.0
47.564857481,820.0
47.581568750,841.0
47.598280019,845.0
47.614991288,897.0
47.631702557,809.0
47.648413826,860.0
47.665125095,842.0
47.681836364,849.0
47.698547633,794.0
47.715258902,812.0
47.731970171,794.0
47.748681440,882.0
47.765392709,776.0
47.782103978,818.0
47.798815247,819.0
47.815526516,859.0
47.832237785,841.0
47.848949054,809.0
47.865660323,847.0
47.882371592,859.0
47.899082861,900.0
47.915794130,811.0
47.932505399,859.0
47.949216668,838.0
47.965927937,829.0
47.982639206,791.0
47.999350475,848.0
48.016061744,802.0
48.032773013,831.0
48.049484282,787.0
48.066195551,826.0
48.082906820,826.0
48.099618089,848.0
48.116329358,836.0
48.133040627,835.0
48.149751896,795.0
48.166463165,821.0
48.183174434,893.0
48.199885703,805.0
48.216596972,824.0
48.233308241,865.0
48.250019510,888.0
48.266730779,823.0
48.283442047,795.0
48.300153316,841.0
48.316864585,814.0
48.333575854,815.0
48.350287123,793.0
48.366998392,777.0
48.383709661,801.0
48.400420930,823.0
48.417132199,898.0
48.433843468,851.0
48.450554737,800.0
48.467266006,828.0
48.483977275,827.0
48.500688544,823.0
48.517399813,818.0
48.534111082,802.0
48.550822351,780.0
48.567533620,824.0
48.584244889,801.0
48.600956158,811.0
48.617667427,786.0
48.634378696,903.0
48.651089965,908.0
48.667801234,901.0
48.684512503,846.0
48.701223772,806.0
48.717935041,867.0
48.734646310,792.0
48.751357579,892.0
48.768068848,820.0
48.784780117,786.0
48.801491386,818.0
48.818202655,823.0
48.834913924,835.0
48.851625193,783.0
48.868336462,833.0
48.885047731,776.0
48.901759000,839.0
48.918470269,835.0
48.935181538,826.0
48.951892807,763.0
48.968604076,784.0
48.985315345,813.0
49.002026614,851.0
49.018737883,897.0
49.035449151,820.0
49.052160420,837.0
49.068871689,833.0
49.085582958,833.0
49.102294227,828.0
49.119005496,831.0
49.135716765,813.0
49.152428034,777.0
49.169139303,835.0
49.185850572,773.0
49.202561841,879.0
49.219273110,812.0
49.235984379,772.0
49.252695648,811.0
49.269406917,780.0
49.286118186,869.0
49.302829455,859.0
49.319540724,851.0
49.336251993,898.0
49.352963262,820.0
49.369674531,838.0
49.386385800,762.0
49.403097069,857.0
49.419808338,798.0
49.436519607,821.0
49.453230876,834.0
49.469942145,817.0
49.486653414,869.0
49.503364683,784.0
49.520075952,813.0
49.536787221,787.0
49.553498490,797.0
49.570209759,834.0
49.586921028,832.0
49.603632297,847.0
49.620343566,840.0
49.637054835,781.0
49.653766104,802.0
49.670477373,796.0
49.687188642,800.0
49.703899911,799.0
49.720611180,838.0
49.737322449,846.0
49.754033718,825.0
49.770744987,814.0
49.787456256,808.0
49.804167524,784.0
49.820878793,825.0
49.837590062,790.0
49.854301331,849.0
49.871012600,814.0
49.887723869,824.0
49.904435138,795.0
49.921146407,794.0
49.937857676,790.0
49.954568945,786.0
49.971280214,793.0
49.987991483,811.0
50.004702752,810.0
50.021414021,813.0
50.038125290,820.0
50.054836559,795.0
50.071547828,819.0
50.088259097,778.0
50.104970366,791.0
50.121681635,796.0
50.138392904,750.0
50.155104173,818.0
50.171815442,790.0
50.188526711,815.0
50.205237980,808.0
50.221949249,752.0
50.238660518,806.0
50.255371787,783.0
50.272083056,760.0
50.288794325,824.0
50.305505594,837.0
50.322216863,738.0
50.338928132,812.0
50.355639401,820.0
50.372350670,781.0
50.389061939,724.0
50.405773208,839.0
50.422484477,765.0
50.439195746,770.0
50.455907015,817.0
50.472618284,792.0
50.489329553,804.0
50.506040822,826.0
50.522752091,801.0
50.539463360,818.0
50.556174628,875.0
50.572885897,818.0
50.589597166,812.0
50.606308435,809.0
50.623019704,901.0
50.639730973,850.0
50.656442242,819.0
50.673153511,794.0
50.689864780,791.0
50.706576049,777.0
50.723287318,786.0
50.739998587,793.0
50.756709856,801.0
50.773421125,802.0
50.790132394,800.0
50.806843663,795.0
50.823554932,774.0
50.840266201,759.0
50.856977470,807.0
50.873688739,781.0
50.890400008,738.0
50.907111277,768.0
50.923822546,798.0
50.940533815,840.0
50.957245084,835.0
50.973956353,758.0
50.990667622,766.0
51.007378891,826.0
51.024090160,815.0
51.040801429,722.0
51.057512698,732.0
51.074223967,800.0
51.090935236,786.0
51.107646505,801.0
51.124357774,768.0
51.141069043,724.0
51.157780312,726.0
51.174491581,793.0
51.191202850,793.0
51.207914119,797.0
51.224625388,808.0
51.241336657,780.0
51.258047926,684.0
51.274759195,748.0
51.291470464,790.0
51.308181733,819.0
51.324893001,750.0
51.341604270,721.0
51.358315539,793.0
51.375026808,785.0
51.391738077,758.0
51.408449346,785.0
51.425160615,749.0
51.441871884,829.0
51.458583153,774.0
51.475294422,795.0
51.492005691,812.0
51.508716960,742.0
51.525428229,736.0
51.542139498,799.0
51.558850767,788.0
51.575562036,745.0
51.592273305,793.0
51.608984574,764.0
51.625695843,712.0
51.642407112,766.0
51.659118381,792.0
51.675829650,742.0
51.692540919,744.0
51.709252188,800.0
51.725963457,770.0
51.742674726,818.0
51.759385995,759.0
51.776097264,726.0
51.792808533,771.0
51.809519802,757.0
51.826231071,783.0
51.842942340,795.0
51.859653609,749.0
51.876364878,809.0
51.893076147,766.0
51.909787416,825.0
51.926498685,749.0
51.943209954,769.0
51.959921223,759.0
51.976632492,765.0
51.993343761,771.0
52.010055030,769.0
52.026766299,812.0
52.043477568,836.0
52.060188837,735.0
52.076900106,776.0
52.093611374,833.0
52.110322643,794.0
52.127033912,765.0
52.143745181,797.0
52.160456450,777.0
52.177167719,778.0
52.193878988,771.0
52.210590257,796.0
52.227301526,788.0
52.244012795,728.0
52.260724064,750.0
52.277435333,753.0
52.294146602,773.0
52.310857871,730.0
52.327569140,748.0
52.344280409,765.0
52.360991678,768.0
52.377702947,697.0
52.394414216,743.0
52.411125485,767.0
52.427836754,785.0
52.444548023,785.0
52.461259292,746.0
52.477970561,798.0
52.494681830,786.0
52.511393099,752.0
52.528104368,713.0
52.544815637,793.0
52.561526906,754.0
52.578238175,785.0
52.594949444,732.0
52.611660713,771.0
52.628371982,793.0
52.645083251,764.0
52.661794520,759.0
52.678505789,770.0
52.695217058,730.0
52.711928327,753.0
52.728639596,807.0
52.745350865,783.0
52.762062134,777.0
52.778773403,765.0
52.795484672,746.0
52.812195941,741.0
52.828907210,774.0
52.845618478,772.0
52.862329747,742.0
52.879041016,726.0
52.895752285,748.0
52.912463554,786.0
52.929174823,752.0
52.945886092,779.0
52.962597361,767.0
52.979308630,785.0
52.996019899,726.0
53.012731168,760.0
53.029442437,724.0
53.046153706,760.0
53.062864975,739.0
53.079576244,792.0
53.096287513,791.0
53.112998782,786.0
53.129710051,760.0
53.146421320,746.0
53.163132589,753.0
53.179843858,753.0
53.196555127,688.0
53.213266396,754.0
53.229977665,713.0
53.246688934,740.0
53.263400203,772.0
53.280111472,717.0
53.296822741,767.0
53.313534010,681.0
53.330245279,788.0
53.346956548,785.0
53.363667817,800.0
53.380379086,760.0
53.397090355,738.0
53.413801624,783.0
53.430512893,766.0
53.447224162,740.0
53.463935431,786.0
53.480646700,778.0
53.497357969,754.0
53.514069238,764.0
53.530780507,734.0
53.547491776,771.0
53.564203045,738.0
53.580914314,727.0
53.597625583,734.0
53.614336851,768.0
53.631048120,755.0
53.647759389,769.0
53.664470658,808.0
53.681181927,769.0
53.697893196,683.0
53.714604465,795.0
53.731315734,743.0
53.748027003,756.0
53.764738272,799.0
53.781449541,745.0
53.798160810,720.0
53.814872079,790.0
53.831583348,687.0
53.848294617,731.0
53.865005886,754.0
53.881717155,727.0
53.898428424,736.0
53.915139693,760.0
53.931850962,716.0
53.948562231,779.0
53.965273500,683.0
53.981984769,730.0
53.998696038,730.0
54.015407307,783.0
54.032118576,712.0
54.048829845,756.0
54.065541114,764.0
54.082252383,785.0
54.098963652,802.0
54.115674921,795.0
54.132386190,712.0
54.149097459,770.0
54.165808728,778.0
54.182519997,764.0
54.199231266,753.0
54.215942535,750.0
54.232653804,725.0
54.249365073,740.0
54.266076342,736.0
54.282787611,701.0
54.299498880,764.0
54.316210149,755.0
54.332921418,683.0
54.349632687,746.0
54.366343955,752.0
54.383055224,717.0
54.399766493,737.0
54.416477762,759.0
54.433189031,696.0
54.449900300,714.0
54.466611569,822.0
54.483322838,755.0
54.500034107,732.0
54.516745376,734.0
54.533456645,746.0
54.550167914,701.0
54.566879183,811.0
54.583590452,771.0
54.600301721,732.0
54.617012990,720.0
54.633724259,750.0
54.650435528,723.0
54.667146797,710.0
54.683858066,707.0
54.700569335,804.0
54.717280604,736.0
54.733991873,788.0
54.750703142,712.0
54.767414411,739.0
54.784125680,765.0
54.800836949,774.0
54.817548218,774.0
54.834259487,748.0
54.850970756,723.0
54.867682025,727.0
54.884393294,758.0
54.901104563,722.0
54.917815832,723.0
54.934527101,716.0
54.951238370,762.0
54.967949639,776.0
54.984660908,738.0
55.001372177,725.0
55.018083446,720.0
55.034794715,793.0
55.051505984,697.0
55.068217253,729.0
55.084928522,714.0
55.101639791,716.0
55.118351060,731.0
55.135062328,770.0
55.151773597,769.0
55.168484866,755.0
55.185196135,720.0
55.201907404,725.0
55.218618673,720.0
55.235329942,752.0
55.252041211,737.0
55.268752480,729.0
55.285463749,707.0
55.302175018,748.0
55.318886287,771.0
55.335597556,746.0
55.352308825,755.0
55.369020094,731.0
55.385731363,728.0
55.402442632,740.0
55.419153901,762.0
55.435865170,710.0
55.452576439,717.0
55.469287708,690.0
55.485998977,750.0
55.502710246,779.0
55.519421515,702.0
55.536132784,720.0
55.552844053,710.0
55.569555322,754.0
55.586266591,738.0
55.602977860,688.0
55.619689129,788.0
55.636400398,700.0
55.653111667,759.0
55.669822936,672.0
55.686534205,728.0
55.703245474,702.0
55.719956743,751.0
55.736668012,746.0
55.753379281,772.0
55.770090550,721.0
55.786801819,700.0
55.803513088,750.0
55.820224357,732.0
55.836935626,698.0
55.853646895,760.0
55.870358164,727.0
55.887069433,735.0
55.903780701,766.0
55.920491970,765.0
55.937203239,724.0
55.953914508,738.0
55.970625777,756.0
55.987337046,738.0
56.004048315,704.0
56.020759584,759.0
56.037470853,741.0
56.054182122,751.0
56.070893391,682.0
56.087604660,751.0
56.104315929,669.0
56.121027198,702.0
56.137738467,654.0
56.154449736,684.0
56.171161005,732.0
56.187872274,729.0
56.204583543,731.0
56.221294812,753.0
56.238006081,731.0
56.254717350,674.0
56.271428619,723.0
56.288139888,746.0
56.304851157,703.0
56.321562426,746.0
56.338273695,751.0
56.354984964,755.0
56.371696233,689.0
56.388407502,713.0
56.405118771,677.0
56.421830040,752.0
56.438541309,721.0
56.455252578,677.0
56.471963847,750.0
56.488675116,725.0
56.505386385,748.0
56.522097654,772.0
56.538808923,700.0
56.555520192,728.0
56.572231461,730.0
56.588942730,702.0
56.605653999,771.0
56.622365268,748.0
56.639076537,713.0
56.655787805,759.0
56.672499074,688.0
56.689210343,688.0
56.705921612,742.0
56.722632881,741.0
56.739344150,785.0
56.756055419,762.0
56.772766688,690.0
56.789477957,718.0
56.806189226,746.0
56.822900495,728.0
56.839611764,693.0
56.856323033,728.0
56.873034302,741.0
56.889745571,717.0
56.906456840,737.0
56.923168109,754.0
56.939879378,769.0
56.956590647,777.0
56.973301916,697.0
56.990013185,712.0
57.006724454,771.0
57.023435723,699.0
57.040146992,752.0
57.056858261,749.0
57.073569530,764.0
57.090280799,707.0
57.106992068,726.0
57.123703337,740.0
57.140414606,662.0
57.157125875,774.0
57.173837144,764.0
57.190548413,708.0
57.207259682,745.0
57.223970951,724.0
57.240682220,782.0
57.257393489,715.0
57.274104758,735.0
57.290816027,683.0
57.307527296,726.0
57.324238565,730.0
57.340949834,782.0
57.357661103,807.0
57.374372372,806.0
57.391083641,702.0
57.407794910,685.0
57.424506178,723.0
57.441217447,701.0
57.457928716,717.0
57.474639985,755.0
57.491351254,726.0
57.508062523,732.0
57.524773792,746.0
57.541485061,729.0
57.558196330,756.0
57.574907599,728.0
57.591618868,762.0
57.608330137,721.0
57.625041406,744.0
57.641752675,754.0
57.658463944,735.0
57.675175213,717.0
57.691886482,765.0
57.708597751,756.0
57.725309020,746.0
57.742020289,727.0
57.758731558,718.0
57.775442827,725.0
57.792154096,748.0
57.808865365,765.0
57.825576634,752.0
57.842287903,750.0
57.858999172,721.0
57.875710441,788.0
57.892421710,738.0
57.909132979,705.0
57.925844248,724.0
57.942555517,764.0
57.959266786,781.0
57.975978055,774.0
57.992689324,711.0
58.009400593,735.0
58.026111862,799.0
58.042823131,763.0
58.059534400,763.0
58.076245669,754.0
58.092956938,725.0
58.109668207,657.0
58.126379476,766.0
58.143090745,739.0
58.159802014,771.0
58.176513283,753.0
58.193224551,714.0
58.209935820,717.0
58.226647089,770.0
58.243358358,737.0
58.260069627,741.0
58.276780896,754.0
58.293492165,741.0
58.310203434,704.0
58.326914703,714.0
58.343625972,749.0
58.360337241,766.0
58.377048510,777.0
58.393759779,748.0
58.410471048,768.0
58.427182317,723.0
58.443893586,741.0
58.460604855,770.0
58.477316124,726.0
58.494027393,722.0
58.510738662,738.0
58.527449931,700.0
58.544161200,754.0
58.560872469,731.0
58.577583738,705.0
58.594295007,745.0
58.611006276,696.0
58.627717545,675.0
58.644428814,723.0
58.661140083,696.0
58.677851352,726.0
58.694562621,762.0
58.711273890,768.0
58.727985159,700.0
58.744696428,737.0
58.761407697,744.0
58.778118966,704.0
58.794830235,762.0
58.811541504,756.0
58.828252773,697.0
58.844964042,751.0
58.861675311,751.0
58.878386580,756.0
58.895097849,739.0
58.911809118,723.0
58.928520387,764.0
58.945231655,738.0
58.961942924,750.0
58.978654193,702.0
58.995365462,697.0
59.012076731,762.0
59.028788000,730.0
59.045499269,724.0
59.062210538,688.0
59.078921807,693.0
59.095633076,748.0
59.112344345,745.0
59.129055614,745.0
59.145766883,739.0
59.162478152,760.0
59.179189421,762.0
59.195900690,704.0
59.212611959,785.0
59.229323228,718.0
59.246034497,763.0
59.262745766,753.0
59.279457035,768.0
59.296168304,740.0
59.312879573,739.0
59.329590842,751.0
59.346302111,783.0
59.363013380,725.0
59.379724649,713.0
59.396435918,727.0
59.413147187,714.0
59.429858456,705.0
59.446569725,735.0
59.463280994,690.0
59.479992263,716.0
59.496703532,720.0
59.513414801,727.0
59.530126070,773.0
59.546837339,737.0
59.563548608,727.0
59.580259877,701.0
59.596971146,736.0
59.613682415,722.0
59.630393684,788.0
59.647104953,750.0
59.663816222,740.0
59.680527491,723.0
59.697238760,744.0
59.713950028,738.0
59.730661297,714.0
59.747372566,707.0
59.764083835,735.0
59.780795104,713.0
59.797506373,748.0
59.814217642,722.0
59.830928911,758.0
59.847640180,759.0
59.864351449,746.0
59.881062718,743.0
59.897773987,720.0
59.914485256,725.0
59.931196525,696.0
59.947907794,736.0
59.964619063,772.0
59.981330332,746.0
59.998041601,746.0
60.014752870,764.0
60.031464139,709.0
60.048175408,726.0
60.064886677,738.0
60.081597946,724.0
60.098309215,752.0
60.115020484,744.0
60.131731753,790.0
60.148443022,743.0
60.165154291,762.0
60.181865560,735.0
60.198576829,770.0
60.215288098,685.0
60.231999367,772.0
60.248710636,752.0
60.265421905,795.0
60.282133174,768.0
60.298844443,788.0
60.315555712,777.0
60.332266981,716.0
60.348978250,731.0
60.365689519,806.0
60.382400788,721.0
60.399112057,717.0
60.415823326,759.0
60.432534595,709.0
60.449245864,778.0
60.465957132,777.0
60.482668401,794.0
60.499379670,765.0
60.516090939,753.0
60.532802208,773.0
60.549513477,717.0
60.566224746,795.0
60.582936015,759.0
60.599647284,773.0
60.616358553,739.0
60.633069822,749.0
60.649781091,759.0
60.666492360,800.0
60.683203629,804.0
60.699914898,833.0
60.716626167,750.0
60.733337436,748.0
60.750048705,771.0
60.766759974,804.0
60.783471243,807.0
60.800182512,772.0
60.816893781,814.0
60.833605050,776.0
60.850316319,827.0
60.867027588,805.0
60.883738857,812.0
60.900450126,787.0
60.917161395,823.0
60.933872664,779.0
60.950583933,851.0
60.967295202,755.0
60.984006471,794.0
61.000717740,763.0
61.017429009,851.0
61.034140278,833.0
61.050851547,794.0
61.067562816,828.0
61.084274085,807.0
61.100985354,825.0
61.117696623,880.0
61.134407892,802.0
61.151119161,860.0
61.167830430,863.0
61.184541699,834.0
61.201252968,892.0
61.217964237,914.0
61.234675505,895.0
61.251386774,892.0
61.268098043,910.0
61.284809312,848.0
61.301520581,862.0
61.318231850,922.0
61.334943119,931.0
61.351654388,921.0
61.368365657,981.0
61.385076926,932.0
61.401788195,850.0
61.418499464,887.0
61.435210733,910.0
61.451922002,883.0
61.468633271,902.0
61.485344540,880.0
61.502055809,917.0
61.518767078,931.0
61.535478347,926.0
61.552189616,901.0
61.568900885,968.0
61.585612154,865.0
61.602323423,926.0
61.619034692,877.0
61.635745961,922.0
61.652457230,862.0
61.669168499,954.0
61.685879768,877.0
61.702591037,861.0
61.719302306,895.0
61.736013575,883.0
61.752724844,850.0
61.769436113,819.0
61.786147382,852.0
61.802858651,904.0
61.819569920,892.0
61.836281189,804.0
61.852992458,869.0
61.869703727,865.0
61.886414996,833.0
61.903126265,868.0
61.919837534,819.0
61.936548803,800.0
61.953260072,809.0
61.969971341,799.0
61.986682610,800.0
62.003393878,829.0
62.020105147,837.0
62.036816416,750.0
62.053527685,847.0
62.070238954,779.0
62.086950223,784.0
62.103661492,791.0
62.120372761,778.0
62.137084030,824.0
62.153795299,840.0
62.170506568,811.0
62.187217837,829.0
62.203929106,768.0
62.220640375,773.0
62.237351644,745.0
62.254062913,823.0
62.270774182,796.0
62.287485451,786.0
62.304196720,806.0
62.320907989,776.0
62.337619258,800.0
62.354330527,831.0
62.371041796,798.0
62.387753065,811.0
62.404464334,743.0
62.421175603,746.0
62.437886872,783.0
62.454598141,806.0
62.471309410,731.0
62.488020679,784.0
62.504731948,751.0
62.521443217,836.0
62.538154486,778.0
62.554865755,805.0
62.571577024,755.0
62.588288293,754.0
62.604999562,778.0
62.621710831,736.0
62.638422100,758.0
62.655133369,754.0
62.671844638,801.0
62.688555907,746.0
62.705267176,749.0
62.721978445,743.0
62.738689714,814.0
62.755400982,790.0
62.772112251,729.0
62.788823520,739.0
62.805534789,774.0
62.822246058,732.0
62.838957327,785.0
62.855668596,795.0
62.872379865,767.0
62.889091134,726.0
62.905802403,743.0
62.922513672,717.0
62.939224941,771.0
62.955936210,753.0
62.972647479,774.0
62.989358748,741.0
63.006070017,698.0
63.022781286,724.0
63.039492555,741.0
63.056203824,737.0
63.072915093,708.0
63.089626362,750.0
63.106337631,783.0
63.123048900,745.0
63.139760169,734.0
63.156471438,743.0
63.173182707,722.0
63.189893976,712.0
63.206605245,751.0
63.223316514,726.0
63.240027783,820.0
63.256739052,790.0
63.273450321,774.0
63.290161590,776.0
63.306872859,718.0
63.323584128,776.0
63.340295397,697.0
63.357006666,742.0
63.373717935,762.0
63.390429204,752.0
63.407140473,759.0
63.423851742,768.0
63.440563011,753.0
63.457274280,723.0
63.473985549,736.0
63.490696818,737.0
63.507408087,728.0
63.524119355,764.0
63.540830624,720.0
63.557541893,779.0
63.574253162,767.0
63.590964431,718.0
63.607675700,755.0
63.624386969,717.0
63.641098238,768.0
63.657809507,783.0
63.674520776,732.0
63.691232045,755.0
63.707943314,695.0
63.724654583,717.0
63.741365852,738.0
63.758077121,730.0
63.774788390,742.0
63.791499659,793.0
63.808210928,725.0
63.824922197,779.0
63.841633466,760.0
63.858344735,735.0
63.875056004,730.0
63.891767273,752.0
63.908478542,730.0
63.925189811,767.0
63.941901080,791.0
63.958612349,708.0
63.975323618,740.0
63.992034887,748.0
64.008746156,767.0
64.025457425,715.0
64.042168694,684.0
64.058879963,744.0
64.075591232,739.0
64.092302501,756.0
64.109013770,727.0
64.125725039,785.0
64.142436308,753.0
64.159147577,725.0
64.175858846,785.0
64.192570115,782.0
64.209281384,735.0
64.225992653,769.0
64.242703922,737.0
64.259415191,742.0
64.276126459,744.0
64.292837728,714.0
64.309548997,743.0
64.326260266,696.0
64.342971535,731.0
64.359682804,773.0
64.376394073,770.0
64.393105342,720.0
64.409816611,756.0
64.426527880,737.0
64.443239149,779.0
64.459950418,735.0
64.476661687,723.0
64.493372956,735.0
64.510084225,686.0
64.526795494,724.0
64.543506763,749.0
64.560218032,766.0
64.576929301,728.0
64.593640570,768.0
64.610351839,801.0
64.627063108,756.0
64.643774377,752.0
64.660485646,722.0
64.677196915,724.0
64.693908184,757.0
64.710619453,728.0
64.727330722,738.0
64.744041991,735.0
64.760753260,739.0
64.777464529,723.0
64.794175798,749.0
64.810887067,712.0
64.827598336,791.0
64.844309605,750.0
64.861020874,788.0
64.877732143,762.0
64.894443412,757.0
64.911154681,716.0
64.927865950,756.0
64.944577219,698.0
64.961288488,756.0
64.977999757,770.0
64.994711026,714.0
65.011422295,712.0
65.028133564,763.0
65.044844832,745.0
65.061556101,781.0
65.078267370,739.0
65.094978639,750.0
65.111689908,781.0
65.128401177,742.0
65.145112446,764.0
65.161823715,707.0
65.178534984,744.0
65.195246253,755.0
65.211957522,753.0
65.228668791,736.0
65.245380060,752.0
65.262091329,722.0
65.278802598,766.0
65.295513867,740.0
65.312225136,754.0
65.328936405,743.0
65.345647674,731.0
65.362358943,724.0
65.379070212,729.0
65.395781481,744.0
65.412492750,707.0
65.429204019,741.0
65.445915288,734.0
65.462626557,742.0
65.479337826,762.0
65.496049095,679.0
65.512760364,780.0
65.529471633,707.0
65.546182902,768.0
65.562894171,727.0
65.579605440,760.0
65.596316709,675.0
65.613027978,782.0
65.629739247,773.0
65.646450516,710.0
65.663161785,709.0
65.679873054,842.0
65.696584323,752.0
65.713295592,757.0
65.730006861,752.0
65.746718130,742.0
65.763429399,707.0
65.780140668,773.0
65.796851937,746.0
65.813563205,815.0
65.830274474,740.0
65.846985743,745.0
65.863697012,685.0
65.880408281,773.0
65.897119550,735.0
65.913830819,763.0
65.930542088,730.0
65.947253357,764.0
65.963964626,728.0
65.980675895,766.0
65.997387164,753.0
66.014098433,750.0
66.030809702,717.0
66.047520971,770.0
66.064232240,726.0
66.080943509,672.0
66.097654778,774.0
66.114366047,756.0
66.131077316,741.0
66.147788585,781.0
66.164499854,674.0
66.181211123,732.0
66.197922392,725.0
66.214633661,746.0
66.231344930,698.0
66.248056199,689.0
66.264767468,735.0
66.281478737,680.0
66.298190006,713.0
66.314901275,743.0
66.331612544,741.0
66.348323813,753.0
66.365035082,732.0
66.381746351,749.0
66.398457620,746.0
66.415168889,722.0
66.431880158,780.0
66.448591427,755.0
66.465302696,794.0
66.482013965,749.0
66.498725234,729.0
66.515436503,748.0
66.532147772,770.0
66.548859041,739.0
66.565570309,716.0
66.582281578,767.0
66.598992847,759.0
66.615704116,724.0
66.632415385,751.0
66.649126654,702.0
66.665837923,791.0
66.682549192,721.0
66.699260461,752.0
66.715971730,728.0
66.732682999,734.0
66.749394268,766.0
66.766105537,724.0
66.782816806,700.0
66.799528075,773.0
66.816239344,753.0
66.832950613,805.0
66.849661882,736.0
66.866373151,712.0
66.883084420,735.0
66.899795689,732.0
66.916506958,756.0
66.933218227,699.0
66.949929496,709.0
66.966640765,754.0
66.983352034,738.0
67.000063303,702.0
67.016774572,686.0
67.033485841,732.0
67.050197110,744.0
67.066908379,704.0
67.083619648,681.0
67.100330917,759.0
67.117042186,770.0
67.133753455,782.0
67.150464724,716.0
67.167175993,758.0
67.183887262,720.0
67.200598531,741.0
67.217309800,729.0
67.234021069,716.0
67.250732338,745.0
67.267443607,756.0
67.284154876,765.0
67.300866145,764.0
67.317577414,765.0
67.334288682,712.0
67.350999951,720.0
67.367711220,779.0
67.384422489,742.0
67.401133758,741.0
67.417845027,699.0
67.434556296,740.0
67.451267565,738.0
67.467978834,740.0
67.484690103,736.0
67.501401372,693.0
67.518112641,728.0
67.534823910,708.0
67.551535179,729.0
67.568246448,707.0
67.584957717,673.0
67.601668986,749.0
67.618380255,752.0
67.635091524,684.0
67.651802793,711.0
67.668514062,740.0
67.685225331,766.0
67.701936600,711.0
67.718647869,716.0
67.735359138,780.0
67.752070407,750.0
67.768781676,726.0
67.785492945,710.0
67.802204214,753.0
67.818915483,718.0
67.835626752,717.0
67.852338021,715.0
67.869049290,720.0
67.885760559,758.0
67.902471828,744.0
67.919183097,720.0
67.935894366,691.0
67.952605635,743.0
67.969316904,717.0
67.986028173,739.0
68.002739442,725.0
68.019450711,699.0
68.036161980,735.0
68.052873249,712.0
68.069584518,751.0
68.086295786,740.0
68.103007055,744.0
68.119718324,721.0
68.136429593,732.0
68.153140862,721.0
68.169852131,773.0
68.186563400,762.0
68.203274669,724.0
68.219985938,705.0
68.236697207,690.0
68.253408476,726.0
68.270119745,688.0
68.286831014,717.0
68.303542283,686.0
68.320253552,698.0
68.336964821,690.0
68.353676090,756.0
68.370387359,710.0
68.387098628,665.0
68.403809897,710.0
68.420521166,695.0
68.437232435,772.0
68.453943704,728.0
68.470654973,693.0
68.487366242,718.0
68.504077511,712.0
68.520788780,699.0
68.537500049,712.0
68.554211318,745.0
68.570922587,683.0
68.587633856,739.0
68.604345125,739.0
68.621056394,722.0
68.637767663,703.0
68.654478932,714.0
68.671190201,699.0
68.687901470,705.0
68.704612739,695.0
68.721324008,701.0
68.738035277,710.0
68.754746546,685.0
68.771457815,685.0
68.788169084,751.0
68.804880353,751.0
68.821591622,697.0
68.838302891,656.0
68.855014159,726.0
68.871725428,734.0
68.888436697,716.0
68.905147966,641.0
68.921859235,654.0
68.938570504,698.0
68.955281773,707.0
68.971993042,675.0
68.988704311,688.0
69.005415580,779.0
69.022126849,727.0
69.038838118,675.0
69.055549387,676.0
69.072260656,721.0
69.088971925,687.0
69.105683194,713.0
69.122394463,702.0
69.139105732,691.0
69.155817001,670.0
69.172528270,667.0
69.189239539,691.0
69.205950808,709.0
69.222662077,738.0
69.239373346,715.0
69.256084615,683.0
69.272795884,695.0
69.289507153,670.0
69.306218422,727.0
69.322929691,708.0
69.339640960,717.0
69.356352229,710.0
69.373063498,716.0
69.389774767,721.0
69.406486036,694.0
69.423197305,697.0
69.439908574,682.0
69.456619843,661.0
69.473331112,713.0
69.490042381,670.0
69.506753650,709.0
69.523464919,712.0
69.540176188,713.0
69.556887457,702.0
69.573598726,708.0
69.590309995,717.0
69.607021264,703.0
69.623732532,677.0
69.640443801,698.0
69.657155070,660.0
69.673866339,705.0
69.690577608,689.0
69.707288877,717.0
69.724000146,685.0
69.740711415,702.0
69.757422684,689.0
69.774133953,657.0
69.790845222,697.0
69.807556491,681.0
69.824267760,703.0
69.840979029,756.0
69.857690298,737.0
69.874401567,708.0
69.891112836,659.0
69.907824105,723.0
69.924535374,713.0
69.941246643,638.0
69.957957912,671.0
69.974669181,699.0
69.991380450,698.0
