[Measurement conditions]
Sample identification,
Comment - 1,"Configuration=Flat Samole Stage, Owner=User-1, Creation date=26-10-2009 9:12:11"
Comment - 2,"Goniometer=PW3050/60 (Theta/Theta); Minimum step size 2Theta:0.001; Minimum step size Omega:0.001"
Comment - 3,"Sample stage=PW3071/xx Bracket"
Comment - 4,"Diffractometer system=XPERT-PRO"
Comment - 5,"Measurement program=lixo, Owner=AnaP, Creation date=26-07-2013 11:02:14"
Comment - 6,"Fine Calibration Offset for 2Theta = 0.021 deg"
Anode material,Cu
K-Alpha1 wavelength,1.5405980
K-Alpha2 wavelength,1.5444260
Ratio K-Alpha2/K-Alpha1,0.500
Divergence slit,Fixed,0.76mm
Monochromator used,NO
Generator voltage, 45
Tube current, 40
File date and time,29-Jun-2017 13:42
Unit cell,
h k l, 0 0 0
Scan axis,Gonio
Scan range,25.012999996,69.999736084
Scan step size,0.0167113
No. of points, 2692
Scan type,CONTINUOUS
Time per step,29.845
[Scan points]
Angle,Intensity
25.021355630,2276.0
25.038066899,2272.0
25.054778168,2331.0
25.071489437,2196.0
25.088200706,2265.0
25.104911975,2317.0
25.121623244,2274.0
25.138334513,2218.0
25.155045782,2334.0
25.171757051,2276.0
25.188468320,2293.0
25.205179589,2299.0
25.221890858,2194.0
25.238602127,2240.0
25.255313396,2236.0
25.272024665,2265.0
25.288735934,2172.0
25.305447203,2368.0
25.322158472,2264.0
25.338869741,2200.0
25.355581010,2240.0
25.372292279,2267.0
25.389003548,2231.0
25.405714816,2210.0
25.422426085,2134.0
25.439137354,2208.0
25.455848623,2108.0
25.472559892,2137.0
25.489271161,2123.0
25.505982430,2152.0
25.522693699,2089.0
25.539404968,2126.0
25.556116237,2196.0
25.572827506,2183.0
25.589538775,2203.0
25.606250044,2122.0
25.622961313,2119.0
25.639672582,2153.0
25.656383851,2143.0
25.673095120,2130.0
25.689806389,2092.0
25.706517658,2100.0
25.723228927,2002.0
25.739940196,2168.0
25.756651465,2196.0
25.773362734,2113.0
25.790074003,2148.0
25.806785272,2095.0
25.823496541,2102.0
25.840207810,2197.0
25.856919079,2068.0
25.873630348,2067.0
25.890341617,2025.0
25.907052886,2042.0
25.923764155,2067.0
25.940475424,2124.0
25.957186693,2085.0
25.973897962,2089.0
25.990609231,2160.0
26.007320500,2114.0
26.024031769,2117.0
26.040743038,2106.0
26.057454307,2079.0
26.074165576,1940.0
26.090876845,2058.0
26.107588114,1991.0
26.124299383,2109.0
26.141010652,1991.0
26.157721921,1999.0
26.174433189,2008.0
26.191144458,2083.0
26.207855727,1928.0
26.224566996,1996.0
26.241278265,2004.0
26.257989534,2010.0
26.274700803,1983.0
26.291412072,1946.0
26.308123341,1961.0
26.324834610,1960.0
26.341545879,1989.0
26.358257148,2014.0
26.374968417,2015.0
26.391679686,2061.0
26.408390955,1985.0
26.425102224,1985.0
26.441813493,1964.0
26.458524762,1926.0
26.475236031,1909.0
26.491947300,2004.0
26.508658569,1912.0
26.525369838,1919.0
26.542081107,1963.0
26.558792376,1964.0
26.575503645,1907.0
26.592214914,1949.0
26.608926183,1968.0
26.625637452,1981.0
26.642348721,1928.0
26.659059990,1903.0
26.675771259,1942.0
26.692482528,1854.0
26.709193797,1861.0
26.725905066,1932.0
26.742616335,1886.0
26.759327604,1878.0
26.776038873,1853.0
26.792750142,1836.0
26.809461411,1892.0
26.826172680,1866.0
26.842883949,1809.0
26.859595218,1877.0
26.876306487,1935.0
26.893017756,1908.0
26.909729025,1807.0
26.926440294,1859.0
26.943151562,1866.0
26.959862831,1811.0
26.976574100,1792.0
26.993285369,1763.0
27.009996638,1859.0
27.026707907,1824.0
27.043419176,1825.0
27.060130445,1835.0
27.076841714,1785.0
27.093552983,1876.0
27.110264252,1834.0
27.126975521,1861.0
27.143686790,1768.0
27.160398059,1854.0
27.177109328,1832.0
27.193820597,1838.0
27.210531866,1732.0
27.227243135,1770.0
27.243954404,1712.0
27.260665673,1668.0
27.277376942,1704.0
27.294088211,1777.0
27.310799480,1746.0
27.327510749,1845.0
27.344222018,1775.0
27.360933287,1802.0
27.377644556,1729.0
27.394355825,1713.0
27.411067094,1797.0
27.427778363,1790.0
27.444489632,1719.0
27.461200901,1734.0
27.477912170,1808.0
27.494623439,1732.0
27.511334708,1727.0
27.528045977,1741.0
27.544757246,1812.0
27.561468515,1718.0
27.578179784,1737.0
27.594891053,1677.0
27.611602322,1722.0
27.628313591,1734.0
27.645024860,1641.0
27.661736129,1695.0
27.678447398,1755.0
27.695158666,1748.0
27.711869935,1711.0
27.728581204,1735.0
27.745292473,1673.0
27.762003742,1722.0
27.778715011,1671.0
27.795426280,1721.0
27.812137549,1714.0
27.828848818,1752.0
27.845560087,1733.0
27.862271356,1708.0
27.878982625,1672.0
27.895693894,1712.0
27.912405163,1729.0
27.929116432,1632.0
27.945827701,1615.0
27.962538970,1706.0
27.979250239,1682.0
27.995961508,1659.0
28.012672777,1697.0
28.029384046,1679.0
28.046095315,1705.0
28.062806584,1608.0
28.079517853,1583.0
28.096229122,1640.0
28.112940391,1709.0
28.129651660,1663.0
28.146362929,1704.0
28.163074198,1611.0
28.179785467,1656.0
28.196496736,1694.0
28.213208005,1616.0
28.229919274,1628.0
28.246630543,1634.0
28.263341812,1648.0
28.280053081,1672.0
28.296764350,1576.0
28.313475619,1595.0
28.330186888,1615.0
28.346898157,1660.0
28.363609426,1635.0
28.380320695,1599.0
28.397031964,1584.0
28.413743233,1570.0
28.430454502,1632.0
28.447165771,1678.0
28.463877039,1643.0
28.480588308,1614.0
28.497299577,1610.0
28.514010846,1590.0
28.530722115,1569.0
28.547433384,1644.0
28.564144653,1551.0
28.580855922,1581.0
28.597567191,1589.0
28.614278460,1637.0
28.630989729,1493.0
28.647700998,1555.0
28.664412267,1582.0
28.681123536,1590.0
28.697834805,1610.0
28.714546074,1594.0
28.731257343,1562.0
28.747968612,1573.0
28.764679881,1499.0
28.781391150,1583.0
28.798102419,1580.0
28.814813688,1560.0
28.831524957,1490.0
28.848236226,1611.0
28.864947495,1562.0
28.881658764,1539.0
28.898370033,1538.0
28.915081302,1539.0
28.931792571,1573.0
28.948503840,1517.0
28.965215109,1486.0
28.981926378,1476.0
28.998637647,1496.0
29.015348916,1488.0
29.032060185,1515.0
29.048771454,1542.0
29.065482723,1581.0
29.082193992,1532.0
29.098905261,1503.0
29.115616530,1539.0
29.132327799,1496.0
29.149039068,1539.0
29.165750337,1512.0
29.182461606,1462.0
29.199172875,1557.0
29.215884143,1563.0
29.232595412,1473.0
29.249306681,1499.0
29.266017950,1513.0
29.282729219,1462.0
29.299440488,1505.0
29.316151757,1485.0
29.332863026,1518.0
29.349574295,1594.0
29.366285564,1484.0
29.382996833,1519.0
29.399708102,1499.0
29.416419371,1454.0
29.433130640,1463.0
29.449841909,1410.0
29.466553178,1502.0
29.483264447,1537.0
29.499975716,1461.0
29.516686985,1539.0
29.533398254,1451.0
29.550109523,1396.0
29.566820792,1450.0
29.583532061,1434.0
29.600243330,1558.0
29.616954599,1469.0
29.633665868,1485.0
29.650377137,1416.0
29.667088406,1455.0
29.683799675,1461.0
29.700510944,1423.0
29.717222213,1393.0
29.733933482,1456.0
29.750644751,1482.0
29.767356020,1444.0
29.784067289,1416.0
29.800778558,1422.0
29.817489827,1446.0
29.834201096,1386.0
29.850912365,1416.0
29.867623634,1444.0
29.884334903,1407.0
29.901046172,1438.0
29.917757441,1443.0
29.934468710,1452.0
29.951179979,1447.0
29.967891248,1425.0
29.984602516,1440.0
30.001313785,1490.0
30.018025054,1422.0
30.034736323,1383.0
30.051447592,1431.0
30.068158861,1429.0
30.084870130,1456.0
30.101581399,1429.0
30.118292668,1422.0
30.135003937,1442.0
30.151715206,1429.0
30.168426475,1411.0
30.185137744,1385.0
30.201849013,1361.0
30.218560282,1373.0
30.235271551,1393.0
30.251982820,1340.0
30.268694089,1351.0
30.285405358,1427.0
30.302116627,1328.0
30.318827896,1442.0
30.335539165,1365.0
30.352250434,1396.0
30.368961703,1432.0
30.385672972,1347.0
30.402384241,1403.0
30.419095510,1322.0
30.435806779,1355.0
30.452518048,1395.0
30.469229317,1445.0
30.485940586,1431.0
30.502651855,1294.0
30.519363124,1409.0
30.536074393,1394.0
30.552785662,1395.0
30.569496931,1396.0
30.586208200,1300.0
30.602919469,1386.0
30.619630738,1351.0
30.636342007,1325.0
30.653053276,1339.0
30.669764545,1381.0
30.686475814,1319.0
30.703187083,1296.0
30.719898352,1298.0
30.736609621,1423.0
30.753320889,1340.0
30.770032158,1348.0
30.786743427,1358.0
30.803454696,1366.0
30.820165965,1366.0
30.836877234,1372.0
30.853588503,1365.0
30.870299772,1274.0
30.887011041,1355.0
30.903722310,1361.0
30.920433579,1253.0
30.937144848,1342.0
30.953856117,1414.0
30.970567386,1404.0
30.987278655,1320.0
31.003989924,1299.0
31.020701193,1350.0
31.037412462,1305.0
31.054123731,1354.0
31.070835000,1277.0
31.087546269,1303.0
31.104257538,1340.0
31.120968807,1341.0
31.137680076,1314.0
31.154391345,1332.0
31.171102614,1296.0
31.187813883,1348.0
31.204525152,1269.0
31.221236421,1357.0
31.237947690,1328.0
31.254658959,1298.0
31.271370228,1320.0
31.288081497,1240.0
31.304792766,1300.0
31.321504035,1317.0
31.338215304,1316.0
31.354926573,1325.0
31.371637842,1290.0
31.388349111,1295.0
31.405060380,1291.0
31.421771649,1256.0
31.438482918,1359.0
31.455194187,1345.0
31.471905456,1307.0
31.488616725,1282.0
31.505327993,1230.0
31.522039262,1331.0
31.538750531,1229.0
31.555461800,1261.0
31.572173069,1349.0
31.588884338,1331.0
31.605595607,1254.0
31.622306876,1266.0
31.639018145,1319.0
31.655729414,1212.0
31.672440683,1269.0
31.689151952,1276.0
31.705863221,1257.0
31.722574490,1368.0
31.739285759,1352.0
31.755997028,1324.0
31.772708297,1313.0
31.789419566,1254.0
31.806130835,1253.0
31.822842104,1239.0
31.839553373,1291.0
31.856264642,1318.0
31.872975911,1298.0
31.889687180,1300.0
31.906398449,1245.0
31.923109718,1293.0
31.939820987,1253.0
31.956532256,1304.0
31.973243525,1271.0
31.989954794,1290.0
32.006666063,1248.0
32.023377332,1187.0
32.040088601,1270.0
32.056799870,1243.0
32.073511139,1317.0
32.090222408,1312.0
32.106933677,1327.0
32.123644946,1309.0
32.140356215,1187.0
32.157067484,1238.0
32.173778753,1283.0
32.190490022,1242.0
32.207201291,1230.0
32.223912560,1220.0
32.240623829,1313.0
32.257335098,1312.0
32.274046366,1254.0
32.290757635,1251.0
32.307468904,1285.0
32.324180173,1219.0
32.340891442,1291.0
32.357602711,1306.0
32.374313980,1254.0
32.391025249,1276.0
32.407736518,1282.0
32.424447787,1195.0
32.441159056,1322.0
32.457870325,1324.0
32.474581594,1299.0
32.491292863,1320.0
32.508004132,1341.0
32.524715401,1307.0
32.541426670,1338.0
32.558137939,1367.0
32.574849208,1270.0
32.591560477,1179.0
32.608271746,1262.0
32.624983015,1255.0
32.641694284,1325.0
32.658405553,1247.0
32.675116822,1220.0
32.691828091,1237.0
32.708539360,1194.0
32.725250629,1183.0
32.741961898,1230.0
32.758673167,1236.0
32.775384436,1174.0
32.792095705,1220.0
32.808806974,1183.0
32.825518243,1200.0
32.842229512,1186.0
32.858940781,1236.0
32.875652050,1314.0
32.892363319,1215.0
32.909074588,1193.0
32.925785857,1179.0
32.942497126,1282.0
32.959208395,1264.0
32.975919664,1226.0
32.992630933,1171.0
33.009342202,1167.0
33.026053470,1202.0
33.042764739,1217.0
33.059476008,1236.0
33.076187277,1235.0
33.092898546,1220.0
33.109609815,1186.0
33.126321084,1161.0
33.143032353,1183.0
33.159743622,1245.0
33.176454891,1270.0
33.193166160,1254.0
33.209877429,1284.0
33.226588698,1213.0
33.243299967,1209.0
33.260011236,1221.0
33.276722505,1189.0
33.293433774,1192.0
33.310145043,1154.0
33.326856312,1168.0
33.343567581,1247.0
33.360278850,1150.0
33.376990119,1143.0
33.393701388,1159.0
33.410412657,1166.0
33.427123926,1166.0
33.443835195,1134.0
33.460546464,1198.0
33.477257733,1202.0
33.493969002,1140.0
33.510680271,1145.0
33.527391540,1156.0
33.544102809,1171.0
33.560814078,1236.0
33.577525347,1151.0
33.594236616,1210.0
33.610947885,1222.0
33.627659154,1159.0
33.644370423,1140.0
33.661081692,1161.0
33.677792961,1175.0
33.694504230,1158.0
33.711215499,1125.0
33.727926768,1188.0
33.744638037,1175.0
33.761349306,1145.0
33.778060575,1173.0
33.794771843,1214.0
33.811483112,1140.0
33.828194381,1124.0
33.844905650,1209.0
33.861616919,1167.0
33.878328188,1132.0
33.895039457,1131.0
33.911750726,1202.0
33.928461995,1157.0
33.945173264,1233.0
33.961884533,1101.0
33.978595802,1157.0
33.995307071,1154.0
34.012018340,1136.0
34.028729609,1126.0
34.045440878,1153.0
34.062152147,1191.0
34.078863416,1155.0
34.095574685,1103.0
34.112285954,1152.0
34.128997223,1065.0
34.145708492,1138.0
34.162419761,1110.0
34.179131030,1132.0
34.195842299,1108.0
34.212553568,1138.0
34.229264837,1155.0
34.245976106,1160.0
34.262687375,1089.0
34.279398644,1168.0
34.296109913,1071.0
34.312821182,1145.0
34.329532451,1076.0
34.346243720,1123.0
34.362954989,1180.0
34.379666258,1120.0
34.396377527,1175.0
34.413088796,1180.0
34.429800065,1076.0
34.446511334,1205.0
34.463222603,1150.0
34.479933872,1257.0
34.496645141,1170.0
34.513356410,1156.0
34.530067679,1178.0
34.546778948,1175.0
34.563490216,1243.0
34.580201485,1195.0
34.596912754,1215.0
34.613624023,1233.0
34.630335292,1104.0
34.647046561,1097.0
34.663757830,1109.0
34.680469099,1182.0
34.697180368,1167.0
34.713891637,1170.0
34.730602906,1156.0
34.747314175,1126.0
34.764025444,1156.0
34.780736713,1142.0
34.797447982,1184.0
34.814159251,1157.0
34.830870520,1194.0
34.847581789,1175.0
34.864293058,1141.0
34.881004327,1128.0
34.897715596,1116.0
34.914426865,1111.0
34.931138134,1216.0
34.947849403,1205.0
34.964560672,1227.0
34.981271941,1240.0
34.997983210,1140.0
35.014694479,1146.0
35.031405748,1224.0
35.048117017,1202.0
35.064828286,1184.0
35.081539555,1262.0
35.098250824,1269.0
35.114962093,1260.0
35.131673362,1240.0
35.148384631,1255.0
35.165095900,1319.0
35.181807169,1193.0
35.198518438,1369.0
35.215229707,1353.0
35.231940976,1322.0
35.248652245,1379.0
35.265363514,1475.0
35.282074783,1411.0
35.298786052,1389.0
35.315497320,1502.0
35.332208589,1515.0
35.348919858,1597.0
35.365631127,1613.0
35.382342396,1574.0
35.399053665,1644.0
35.415764934,1767.0
35.432476203,1761.0
35.449187472,1843.0
35.465898741,1872.0
35.482610010,1972.0
35.499321279,1954.0
35.516032548,1981.0
35.532743817,2029.0
35.549455086,2102.0
35.566166355,2020.0
35.582877624,2040.0
35.599588893,1965.0
35.616300162,1987.0
35.633011431,2045.0
35.649722700,1973.0
35.666433969,1974.0
35.683145238,1880.0
35.699856507,1885.0
35.716567776,1888.0
35.733279045,1826.0
35.749990314,1656.0
35.766701583,1651.0
35.783412852,1610.0
35.800124121,1577.0
35.816835390,1539.0
35.833546659,1446.0
35.850257928,1451.0
35.866969197,1418.0
35.883680466,1450.0
35.900391735,1350.0
35.917103004,1314.0
35.933814273,1240.0
35.950525542,1307.0
35.967236811,1250.0
35.983948080,1278.0
36.000659349,1217.0
36.017370618,1217.0
36.034081887,1245.0
36.050793156,1205.0
36.067504425,1199.0
36.084215693,1231.0
36.100926962,1223.0
36.117638231,1129.0
36.134349500,1150.0
36.151060769,1172.0
36.167772038,1157.0
36.184483307,1158.0
36.201194576,1082.0
36.217905845,1067.0
36.234617114,1076.0
36.251328383,1119.0
36.268039652,1099.0
36.284750921,1115.0
36.301462190,1106.0
36.318173459,1060.0
36.334884728,1046.0
36.351595997,1154.0
36.368307266,1132.0
36.385018535,1056.0
36.401729804,1054.0
36.418441073,1055.0
36.435152342,1096.0
36.451863611,1082.0
36.468574880,1064.0
36.485286149,1061.0
36.501997418,1043.0
36.518708687,1086.0
36.535419956,1071.0
36.552131225,1091.0
36.568842494,1019.0
36.585553763,1078.0
36.602265032,1075.0
36.618976301,1025.0
36.635687570,1110.0
36.652398839,1030.0
36.669110108,1049.0
36.685821377,1101.0
36.702532646,1057.0
36.719243915,1046.0
36.735955184,1057.0
36.752666453,1053.0
36.769377722,1062.0
36.786088991,1063.0
36.802800260,1031.0
36.819511529,1045.0
36.836222797,985.0
36.852934066,1026.0
36.869645335,1064.0
36.886356604,999.0
36.903067873,995.0
36.919779142,1031.0
36.936490411,1048.0
36.953201680,1013.0
36.969912949,1036.0
36.986624218,1012.0
37.003335487,965.0
37.020046756,1011.0
37.036758025,1033.0
37.053469294,1086.0
37.070180563,1002.0
37.086891832,1050.0
37.103603101,1016.0
37.120314370,1008.0
37.137025639,995.0
37.153736908,1020.0
37.170448177,1032.0
37.187159446,1023.0
37.203870715,1064.0
37.220581984,982.0
37.237293253,1061.0
37.254004522,1041.0
37.270715791,1053.0
37.287427060,971.0
37.304138329,981.0
37.320849598,1057.0
37.337560867,1057.0
37.354272136,1017.0
37.370983405,965.0
37.387694674,1082.0
37.404405943,1001.0
37.421117212,1064.0
37.437828481,990.0
37.454539750,1077.0
37.471251019,984.0
37.487962288,1016.0
37.504673557,987.0
37.521384826,1048.0
37.538096095,1033.0
37.554807364,991.0
37.571518633,1014.0
37.588229902,981.0
37.604941170,951.0
37.621652439,1008.0
37.638363708,1007.0
37.655074977,1058.0
37.671786246,997.0
37.688497515,981.0
37.705208784,970.0
37.721920053,997.0
37.738631322,976.0
37.755342591,1031.0
37.772053860,1061.0
37.788765129,1005.0
37.805476398,1025.0
37.822187667,1021.0
37.838898936,1072.0
37.855610205,1020.0
37.872321474,1042.0
37.889032743,1049.0
37.905744012,1006.0
37.922455281,1043.0
37.939166550,1058.0
37.955877819,1060.0
37.972589088,1077.0
37.989300357,1085.0
38.006011626,1077.0
38.022722895,1020.0
38.039434164,1021.0
38.056145433,1025.0
38.072856702,1075.0
38.089567971,1137.0
38.106279240,1033.0
38.122990509,1090.0
38.139701778,1089.0
38.156413047,1095.0
38.173124316,1096.0
38.189835585,1097.0
38.206546854,1098.0
38.223258123,1062.0
38.239969392,1132.0
38.256680661,1195.0
38.273391930,1101.0
38.290103199,1196.0
38.306814468,1128.0
38.323525737,1179.0
38.340237006,1115.0
38.356948275,1238.0
38.373659543,1242.0
38.390370812,1248.0
38.407082081,1221.0
38.423793350,1221.0
38.440504619,1304.0
38.457215888,1283.0
38.473927157,1314.0
38.490638426,1334.0
38.507349695,1391.0
38.524060964,1363.0
38.540772233,1468.0
38.557483502,1446.0
38.574194771,1445.0
38.590906040,1472.0
38.607617309,1542.0
38.624328578,1567.0
38.641039847,1625.0
38.657751116,1588.0
38.674462385,1591.0
38.691173654,1666.0
38.707884923,1705.0
38.724596192,1781.0
38.741307461,1635.0
38.758018730,1709.0
38.774729999,1704.0
38.791441268,1735.0
38.808152537,1613.0
38.824863806,1634.0
38.841575075,1636.0
38.858286344,1626.0
38.874997613,1551.0
38.891708882,1546.0
38.908420151,1583.0
38.925131420,1581.0
38.941842689,1504.0
38.958553958,1488.0
38.975265227,1476.0
38.991976496,1487.0
39.008687765,1413.0
39.025399034,1417.0
39.042110303,1391.0
39.058821572,1290.0
39.075532841,1394.0
39.092244110,1225.0
39.108955379,1223.0
39.125666647,1237.0
39.142377916,1197.0
39.159089185,1158.0
39.175800454,1117.0
39.192511723,1236.0
39.209222992,1125.0
39.225934261,1098.0
39.242645530,1048.0
39.259356799,1072.0
39.276068068,1062.0
39.292779337,1112.0
39.309490606,993.0
39.326201875,1025.0
39.342913144,1104.0
39.359624413,1031.0
39.376335682,1006.0
39.393046951,1002.0
39.409758220,980.0
39.426469489,966.0
39.443180758,964.0
39.459892027,970.0
39.476603296,972.0
39.493314565,967.0
39.510025834,934.0
39.526737103,965.0
39.543448372,939.0
39.560159641,970.0
39.576870910,915.0
39.593582179,951.0
39.610293448,892.0
39.627004717,921.0
39.643715986,920.0
39.660427255,905.0
39.677138524,919.0
39.693849793,891.0
39.710561062,963.0
39.727272331,943.0
39.743983600,875.0
39.760694869,936.0
39.777406138,922.0
39.794117407,959.0
39.810828676,925.0
39.827539945,861.0
39.844251214,875.0
39.860962483,861.0
39.877673752,944.0
39.894385020,889.0
39.911096289,910.0
39.927807558,891.0
39.944518827,925.0
39.961230096,823.0
39.977941365,837.0
39.994652634,862.0
40.011363903,891.0
40.028075172,866.0
40.044786441,870.0
40.061497710,865.0
40.078208979,876.0
40.094920248,855.0
40.111631517,836.0
40.128342786,841.0
40.145054055,840.0
40.161765324,874.0
40.178476593,818.0
40.195187862,837.0
40.211899131,854.0
40.228610400,839.0
40.245321669,869.0
40.262032938,828.0
40.278744207,843.0
40.295455476,841.0
40.312166745,854.0
40.328878014,836.0
40.345589283,851.0
40.362300552,859.0
40.379011821,795.0
40.395723090,865.0
40.412434359,855.0
40.429145628,904.0
40.445856897,851.0
40.462568166,846.0
40.479279435,905.0
40.495990704,897.0
40.512701973,824.0
40.529413242,910.0
40.546124511,818.0
40.562835780,874.0
40.579547049,853.0
40.596258318,853.0
40.612969587,783.0
40.629680856,870.0
40.646392125,805.0
40.663103393,855.0
40.679814662,817.0
40.696525931,905.0
40.713237200,869.0
40.729948469,832.0
40.746659738,854.0
40.763371007,807.0
40.780082276,847.0
40.796793545,847.0
40.813504814,827.0
40.830216083,836.0
40.846927352,914.0
40.863638621,847.0
40.880349890,851.0
40.897061159,805.0
40.913772428,808.0
40.930483697,898.0
40.947194966,831.0
40.963906235,846.0
40.980617504,877.0
40.997328773,794.0
41.014040042,836.0
41.030751311,810.0
41.047462580,837.0
41.064173849,795.0
41.080885118,822.0
41.097596387,814.0
41.114307656,885.0
41.131018925,834.0
41.147730194,825.0
41.164441463,905.0
41.181152732,856.0
41.197864001,848.0
41.214575270,807.0
41.231286539,819.0
41.247997808,835.0
41.264709077,833.0
41.281420346,832.0
41.298131615,873.0
41.314842884,833.0
41.331554153,843.0
41.348265422,793.0
41.364976691,817.0
41.381687960,869.0
41.398399229,795.0
41.415110497,812.0
41.431821766,856.0
41.448533035,808.0
41.465244304,837.0
41.481955573,817.0
41.498666842,828.0
41.515378111,846.0
41.532089380,820.0
41.548800649,818.0
41.565511918,891.0
41.582223187,824.0
41.598934456,867.0
41.615645725,785.0
41.632356994,849.0
41.649068263,826.0
41.665779532,786.0
41.682490801,874.0
41.699202070,833.0
41.715913339,873.0
41.732624608,869.0
41.749335877,867.0
41.766047146,807.0
41.782758415,875.0
41.799469684,825.0
41.816180953,852.0
41.832892222,832.0
41.849603491,881.0
41.866314760,807.0
41.883026029,903.0
41.899737298,812.0
41.916448567,773.0
41.933159836,838.0
41.949871105,809.0
41.966582374,814.0
41.983293643,786.0
42.000004912,867.0
42.016716181,857.0
42.033427450,804.0
42.050138719,808.0
42.066849988,826.0
42.083561257,849.0
42.100272526,824.0
42.116983795,814.0
42.133695064,833.0
42.150406333,869.0
42.167117602,863.0
42.183828870,834.0
42.200540139,866.0
42.217251408,831.0
42.233962677,881.0
42.250673946,868.0
42.267385215,854.0
42.284096484,866.0
42.300807753,909.0
42.317519022,801.0
42.334230291,771.0
42.350941560,814.0
42.367652829,829.0
42.384364098,813.0
42.401075367,842.0
42.417786636,774.0
42.434497905,828.0
42.451209174,810.0
42.467920443,778.0
42.484631712,871.0
42.501342981,776.0
42.518054250,796.0
42.534765519,767.0
42.551476788,840.0
42.568188057,738.0
42.584899326,862.0
42.601610595,791.0
42.618321864,841.0
42.635033133,851.0
42.651744402,787.0
42.668455671,819.0
42.685166940,836.0
42.701878209,825.0
42.718589478,793.0
42.735300747,779.0
42.752012016,791.0
42.768723285,863.0
42.785434554,771.0
42.802145823,809.0
42.818857092,805.0
42.835568361,832.0
42.852279630,785.0
42.868990899,812.0
42.885702168,793.0
42.902413437,781.0
42.919124706,808.0
42.935835974,766.0
42.952547243,820.0
42.969258512,807.0
42.985969781,824.0
43.002681050,782.0
43.019392319,787.0
43.036103588,813.0
43.052814857,839.0
43.069526126,876.0
43.086237395,865.0
43.102948664,855.0
43.119659933,843.0
43.136371202,826.0
43.153082471,814.0
43.169793740,839.0
43.186505009,759.0
43.203216278,819.0
43.219927547,802.0
43.236638816,777.0
43.253350085,841.0
43.270061354,809.0
43.286772623,782.0
43.303483892,811.0
43.320195161,824.0
43.336906430,804.0
43.353617699,790.0
43.370328968,801.0
43.387040237,729.0
43.403751506,824.0
43.420462775,818.0
43.437174044,815.0
43.453885313,819.0
43.470596582,826.0
43.487307851,791.0
43.504019120,834.0
43.520730389,818.0
43.537441658,808.0
43.554152927,818.0
43.570864196,862.0
43.587575465,763.0
43.604286734,834.0
43.620998003,845.0
43.637709272,759.0
43.654420541,833.0
43.671131810,855.0
43.687843079,866.0
43.704554347,802.0
43.721265616,809.0
43.737976885,814.0
43.754688154,819.0
43.771399423,888.0
43.788110692,809.0
43.804821961,815.0
43.821533230,825.0
43.838244499,785.0
43.854955768,790.0
43.871667037,787.0
43.888378306,838.0
43.905089575,791.0
43.921800844,793.0
43.938512113,787.0
43.955223382,842.0
43.971934651,729.0
43.988645920,821.0
44.005357189,829.0
44.022068458,819.0
44.038779727,798.0
44.055490996,855.0
44.072202265,807.0
44.088913534,814.0
44.105624803,781.0
44.122336072,765.0
44.139047341,788.0
44.155758610,834.0
44.172469879,824.0
44.189181148,757.0
44.205892417,847.0
44.222603686,841.0
44.239314955,769.0
44.256026224,848.0
44.272737493,784.0
44.289448762,829.0
44.306160031,798.0
44.322871300,820.0
44.339582569,809.0
44.356293838,889.0
44.373005107,784.0
44.389716376,814.0
44.406427645,742.0
44.423138914,850.0
44.439850183,777.0
44.456561452,786.0
44.473272720,773.0
44.489983989,787.0
44.506695258,787.0
44.523406527,811.0
44.540117796,833.0
44.556829065,802.0
44.573540334,807.0
44.590251603,786.0
44.606962872,779.0
44.623674141,791.0
44.640385410,815.0
44.657096679,771.0
44.673807948,799.0
44.690519217,771.0
44.707230486,799.0
44.723941755,809.0
44.740653024,822.0
44.757364293,840.0
44.774075562,783.0
44.790786831,787.0
44.807498100,812.0
44.824209369,824.0
44.840920638,788.0
44.857631907,790.0
44.874343176,792.0
44.891054445,818.0
44.907765714,804.0
44.924476983,878.0
44.941188252,806.0
44.957899521,777.0
44.974610790,731.0
44.991322059,796.0
45.008033328,822.0
45.024744597,855.0
45.041455866,808.0
45.058167135,764.0
45.074878404,817.0
45.091589673,785.0
45.108300942,774.0
45.125012211,781.0
45.141723480,787.0
45.158434749,823.0
45.175146018,812.0
45.191857287,795.0
45.208568556,845.0
45.225279824,796.0
45.241991093,762.0
45.258702362,798.0
45.275413631,831.0
45.292124900,805.0
45.308836169,798.0
45.325547438,770.0
45.342258707,770.0
45.358969976,780.0
45.375681245,764.0
45.392392514,780.0
45.409103783,790.0
45.425815052,788.0
45.442526321,776.0
45.459237590,759.0
45.475948859,798.0
45.492660128,770.0
45.509371397,805.0
45.526082666,765.0
45.542793935,802.0
45.559505204,777.0
45.576216473,798.0
45.592927742,759.0
45.609639011,851.0
45.626350280,806.0
45.643061549,860.0
45.659772818,804.0
45.676484087,852.0
45.693195356,809.0
45.709906625,751.0
45.726617894,799.0
45.743329163,813.0
45.760040432,802.0
45.776751701,825.0
45.793462970,754.0
45.810174239,791.0
45.826885508,828.0
45.843596777,783.0
45.860308046,833.0
45.877019315,795.0
45.893730584,752.0
45.910441853,806.0
45.927153122,823.0
45.943864391,772.0
45.960575660,785.0
45.977286929,782.0
45.993998197,836.0
46.010709466,753.0
46.027420735,781.0
46.044132004,786.0
46.060843273,768.0
46.077554542,779.0
46.094265811,769.0
46.110977080,745.0
46.127688349,810.0
46.144399618,774.0
46.161110887,822.0
46.177822156,798.0
46.194533425,774.0
46.211244694,834.0
46.227955963,811.0
46.244667232,776.0
46.261378501,788.0
46.278089770,846.0
46.294801039,778.0
46.311512308,786.0
46.328223577,802.0
46.344934846,765.0
46.361646115,781.0
46.378357384,755.0
46.395068653,811.0
46.411779922,804.0
46.428491191,807.0
46.445202460,837.0
46.461913729,732.0
46.478624998,828.0
46.495336267,778.0
46.512047536,802.0
46.528758805,792.0
46.545470074,799.0
46.562181343,690.0
46.578892612,810.0
46.595603881,776.0
46.612315150,786.0
46.629026419,794.0
46.645737688,780.0
46.662448957,753.0
46.679160226,857.0
46.695871495,829.0
46.712582764,743.0
46.729294033,696.0
46.746005301,755.0
46.762716570,740.0
46.779427839,756.0
46.796139108,804.0
46.812850377,729.0
46.829561646,782.0
46.846272915,732.0
46.862984184,783.0
46.879695453,780.0
46.896406722,760.0
46.913117991,762.0
46.929829260,823.0
46.946540529,741.0
46.963251798,790.0
46.979963067,848.0
46.996674336,745.0
47.013385605,737.0
47.030096874,770.0
47.046808143,800.0
47.063519412,817.0
47.080230681,758.0
47.096941950,806.0
47.113653219,764.0
47.130364488,765.0
47.147075757,774.0
47.163787026,801.0
47.180498295,742.0
47.197209564,720.0
47.213920833,760.0
47.230632102,801.0
47.247343371,788.0
47.264054640,705.0
47.280765909,790.0
47.297477178,753.0
47.314188447,772.0
47.330899716,797.0
47.347610985,770.0
47.364322254,808.0
47.381033523,742.0
47.397744792,731.0
47.414456061,741.0
47.431167330,758.0
47.447878599,772.0
47.464589868,800.0
47.481301137,780.0
47.498012406,738.0
47.514723674,769.0
47.531434943,818.0
47.548146212,776.0
47.564857481,805.0
47.581568750,787.0
47.598280019,807.0
47.614991288,815.0
47.631702557,795.0
47.648413826,807.0
47.665125095,768.0
47.681836364,772.0
47.698547633,774.0
47.715258902,700.0
47.731970171,788.0
47.748681440,752.0
47.765392709,787.0
47.782103978,794.0
47.798815247,806.0
47.815526516,736.0
47.832237785,771.0
47.848949054,759.0
47.865660323,768.0
47.882371592,750.0
47.899082861,724.0
47.915794130,791.0
47.932505399,779.0
47.949216668,753.0
47.965927937,777.0
47.982639206,760.0
47.999350475,738.0
48.016061744,762.0
48.032773013,788.0
48.049484282,781.0
48.066195551,729.0
48.082906820,739.0
48.099618089,762.0
48.116329358,770.0
48.133040627,772.0
48.149751896,773.0
48.166463165,762.0
48.183174434,805.0
48.199885703,772.0
48.216596972,768.0
48.233308241,810.0
48.250019510,756.0
48.266730779,766.0
48.283442047,749.0
48.300153316,786.0
48.316864585,807.0
48.333575854,812.0
48.350287123,752.0
48.366998392,754.0
48.383709661,794.0
48.400420930,785.0
48.417132199,757.0
48.433843468,786.0
48.450554737,792.0
48.467266006,759.0
48.483977275,815.0
48.500688544,752.0
48.517399813,832.0
48.534111082,794.0
48.550822351,813.0
48.567533620,842.0
48.584244889,811.0
48.600956158,866.0
48.617667427,838.0
48.634378696,839.0
48.651089965,800.0
48.667801234,832.0
48.684512503,793.0
48.701223772,853.0
48.717935041,862.0
48.734646310,832.0
48.751357579,860.0
48.768068848,838.0
48.784780117,905.0
48.801491386,875.0
48.818202655,901.0
48.834913924,882.0
48.851625193,856.0
48.868336462,878.0
48.885047731,914.0
48.901759000,932.0
48.918470269,884.0
48.935181538,926.0
48.951892807,922.0
48.968604076,926.0
48.985315345,887.0
49.002026614,897.0
49.018737883,914.0
49.035449151,905.0
49.052160420,923.0
49.068871689,831.0
49.085582958,879.0
49.102294227,883.0
49.119005496,892.0
49.135716765,825.0
49.152428034,821.0
49.169139303,827.0
49.185850572,838.0
49.202561841,770.0
49.219273110,795.0
49.235984379,773.0
49.252695648,843.0
49.269406917,851.0
49.286118186,788.0
49.302829455,765.0
49.319540724,781.0
49.336251993,813.0
49.352963262,819.0
49.369674531,768.0
49.386385800,812.0
49.403097069,799.0
49.419808338,810.0
49.436519607,806.0
49.453230876,726.0
49.469942145,780.0
49.486653414,795.0
49.503364683,728.0
49.520075952,811.0
49.536787221,801.0
49.553498490,795.0
49.570209759,767.0
49.586921028,729.0
49.603632297,737.0
49.620343566,737.0
49.637054835,711.0
49.653766104,772.0
49.670477373,783.0
49.687188642,769.0
49.703899911,753.0
49.720611180,742.0
49.737322449,743.0
49.754033718,755.0
49.770744987,732.0
49.787456256,757.0
49.804167524,740.0
49.820878793,767.0
49.837590062,782.0
49.854301331,760.0
49.871012600,682.0
49.887723869,725.0
49.904435138,764.0
49.921146407,713.0
49.937857676,744.0
49.954568945,698.0
49.971280214,725.0
49.987991483,728.0
50.004702752,758.0
50.021414021,782.0
50.038125290,726.0
50.054836559,740.0
50.071547828,714.0
50.088259097,723.0
50.104970366,808.0
50.121681635,762.0
50.138392904,714.0
50.155104173,699.0
50.171815442,746.0
50.188526711,797.0
50.205237980,749.0
50.221949249,798.0
50.238660518,739.0
50.255371787,769.0
50.272083056,682.0
50.288794325,735.0
50.305505594,743.0
50.322216863,729.0
50.338928132,751.0
50.355639401,721.0
50.372350670,708.0
50.389061939,714.0
50.405773208,732.0
50.422484477,712.0
50.439195746,715.0
50.455907015,757.0
50.472618284,752.0
50.489329553,702.0
50.506040822,691.0
50.522752091,781.0
50.539463360,738.0
50.556174628,699.0
50.572885897,728.0
50.589597166,707.0
50.606308435,741.0
50.623019704,699.0
50.639730973,759.0
50.656442242,699.0
50.673153511,737.0
50.689864780,736.0
50.706576049,769.0
50.723287318,686.0
50.739998587,669.0
50.756709856,718.0
50.773421125,753.0
50.790132394,754.0
50.806843663,730.0
50.823554932,741.0
50.840266201,728.0
50.856977470,712.0
50.873688739,709.0
50.890400008,661.0
50.907111277,687.0
50.923822546,672.0
50.940533815,795.0
50.957245084,726.0
50.973956353,690.0
50.990667622,696.0
51.007378891,738.0
51.024090160,736.0
51.040801429,720.0
51.057512698,758.0
51.074223967,709.0
51.090935236,779.0
51.107646505,687.0
51.124357774,734.0
51.141069043,713.0
51.157780312,676.0
51.174491581,671.0
51.191202850,741.0
51.207914119,762.0
51.224625388,680.0
51.241336657,740.0
51.258047926,739.0
51.274759195,669.0
51.291470464,734.0
51.308181733,777.0
51.324893001,685.0
51.341604270,704.0
51.358315539,705.0
51.375026808,705.0
51.391738077,727.0
51.408449346,726.0
51.425160615,713.0
51.441871884,724.0
51.458583153,675.0
51.475294422,677.0
51.492005691,714.0
51.508716960,713.0
51.525428229,674.0
51.542139498,725.0
51.558850767,697.0
51.575562036,770.0
51.592273305,652.0
51.608984574,663.0
51.625695843,687.0
51.642407112,695.0
51.659118381,751.0
51.675829650,756.0
51.692540919,722.0
51.709252188,693.0
51.725963457,698.0
51.742674726,734.0
51.759385995,697.0
51.776097264,710.0
51.792808533,738.0
51.809519802,745.0
51.826231071,738.0
51.842942340,713.0
51.859653609,708.0
51.876364878,698.0
51.893076147,707.0
51.909787416,729.0
51.926498685,661.0
51.943209954,683.0
51.959921223,755.0
51.976632492,683.0
51.993343761,728.0
52.010055030,665.0
52.026766299,710.0
52.043477568,717.0
52.060188837,735.0
52.076900106,705.0
52.093611374,736.0
52.110322643,709.0
52.127033912,743.0
52.143745181,728.0
52.160456450,689.0
52.177167719,707.0
52.193878988,705.0
52.210590257,715.0
52.227301526,673.0
52.244012795,677.0
52.260724064,659.0
52.277435333,738.0
52.294146602,680.0
52.310857871,685.0
52.327569140,679.0
52.344280409,704.0
52.360991678,729.0
52.377702947,700.0
52.394414216,735.0
52.411125485,708.0
52.427836754,748.0
52.444548023,744.0
52.461259292,765.0
52.477970561,668.0
52.494681830,737.0
52.511393099,728.0
52.528104368,696.0
52.544815637,724.0
52.561526906,715.0
52.578238175,705.0
52.594949444,707.0
52.611660713,662.0
52.628371982,718.0
52.645083251,709.0
52.661794520,680.0
52.678505789,685.0
52.695217058,694.0
52.711928327,704.0
52.728639596,662.0
52.745350865,670.0
52.762062134,681.0
52.778773403,662.0
52.795484672,728.0
52.812195941,710.0
52.828907210,701.0
52.845618478,699.0
52.862329747,732.0
52.879041016,769.0
52.895752285,717.0
52.912463554,730.0
52.929174823,698.0
52.945886092,685.0
52.962597361,677.0
52.979308630,732.0
52.996019899,713.0
53.012731168,729.0
53.029442437,753.0
53.046153706,722.0
53.062864975,737.0
53.079576244,777.0
53.096287513,712.0
53.112998782,693.0
53.129710051,709.0
53.146421320,727.0
53.163132589,756.0
53.179843858,652.0
53.196555127,718.0
53.213266396,722.0
53.229977665,741.0
53.246688934,774.0
53.263400203,713.0
53.280111472,739.0
53.296822741,671.0
53.313534010,708.0
53.330245279,738.0
53.346956548,707.0
53.363667817,701.0
53.380379086,725.0
53.397090355,770.0
53.413801624,754.0
53.430512893,739.0
53.447224162,684.0
53.463935431,731.0
53.480646700,697.0
53.497357969,700.0
53.514069238,751.0
53.530780507,726.0
53.547491776,694.0
53.564203045,766.0
53.580914314,679.0
53.597625583,702.0
53.614336851,731.0
53.631048120,701.0
53.647759389,725.0
53.664470658,711.0
53.681181927,757.0
53.697893196,716.0
53.714604465,711.0
53.731315734,723.0
53.748027003,710.0
53.764738272,709.0
53.781449541,724.0
53.798160810,770.0
53.814872079,742.0
53.831583348,778.0
53.848294617,688.0
53.865005886,712.0
53.881717155,746.0
53.898428424,724.0
53.915139693,698.0
53.931850962,667.0
53.948562231,726.0
53.965273500,714.0
53.981984769,713.0
53.998696038,718.0
54.015407307,685.0
54.032118576,691.0
54.048829845,728.0
54.065541114,736.0
54.082252383,667.0
54.098963652,710.0
54.115674921,703.0
54.132386190,666.0
54.149097459,729.0
54.165808728,672.0
54.182519997,748.0
54.199231266,753.0
54.215942535,741.0
54.232653804,672.0
54.249365073,701.0
54.266076342,663.0
54.282787611,676.0
54.299498880,684.0
54.316210149,735.0
54.332921418,707.0
54.349632687,711.0
54.366343955,716.0
54.383055224,708.0
54.399766493,709.0
54.416477762,713.0
54.433189031,698.0
54.449900300,689.0
54.466611569,695.0
54.483322838,724.0
54.500034107,651.0
54.516745376,693.0
54.533456645,734.0
54.550167914,691.0
54.566879183,731.0
54.583590452,732.0
54.600301721,726.0
54.617012990,708.0
54.633724259,726.0
54.650435528,687.0
54.667146797,726.0
54.683858066,662.0
54.700569335,675.0
54.717280604,663.0
54.733991873,707.0
54.750703142,690.0
54.767414411,713.0
54.784125680,693.0
54.800836949,679.0
54.817548218,707.0
54.834259487,748.0
54.850970756,670.0
54.867682025,716.0
54.884393294,685.0
54.901104563,653.0
54.917815832,634.0
54.934527101,714.0
54.951238370,667.0
54.967949639,714.0
54.984660908,740.0
55.001372177,673.0
55.018083446,662.0
55.034794715,715.0
55.051505984,724.0
55.068217253,697.0
55.084928522,672.0
55.101639791,713.0
55.118351060,693.0
55.135062328,703.0
55.151773597,677.0
55.168484866,652.0
55.185196135,684.0
55.201907404,675.0
55.218618673,669.0
55.235329942,707.0
55.252041211,693.0
55.268752480,655.0
55.285463749,685.0
55.302175018,697.0
55.318886287,734.0
55.335597556,655.0
55.352308825,708.0
55.369020094,696.0
55.385731363,677.0
55.402442632,744.0
55.419153901,714.0
55.435865170,696.0
55.452576439,672.0
55.469287708,657.0
55.485998977,704.0
55.502710246,681.0
55.519421515,699.0
55.536132784,680.0
55.552844053,702.0
55.569555322,698.0
55.586266591,637.0
55.602977860,659.0
55.619689129,701.0
55.636400398,743.0
55.653111667,694.0
55.669822936,687.0
55.686534205,677.0
55.703245474,695.0
55.719956743,668.0
55.736668012,714.0
55.753379281,710.0
55.770090550,672.0
55.786801819,668.0
55.803513088,666.0
55.820224357,731.0
55.836935626,645.0
55.853646895,656.0
55.870358164,687.0
55.887069433,688.0
55.903780701,673.0
55.920491970,665.0
55.937203239,712.0
55.953914508,660.0
55.970625777,725.0
55.987337046,746.0
56.004048315,640.0
56.020759584,714.0
56.037470853,693.0
56.054182122,695.0
56.070893391,705.0
56.087604660,689.0
56.104315929,710.0
56.121027198,679.0
56.137738467,711.0
56.154449736,715.0
56.171161005,647.0
56.187872274,691.0
56.204583543,630.0
56.221294812,684.0
56.238006081,704.0
56.254717350,685.0
56.271428619,657.0
56.288139888,653.0
56.304851157,670.0
56.321562426,728.0
56.338273695,676.0
56.354984964,641.0
56.371696233,690.0
56.388407502,659.0
56.405118771,671.0
56.421830040,699.0
56.438541309,689.0
56.455252578,716.0
56.471963847,682.0
56.488675116,703.0
56.505386385,683.0
56.522097654,698.0
56.538808923,696.0
56.555520192,696.0
56.572231461,682.0
56.588942730,743.0
56.605653999,645.0
56.622365268,714.0
56.639076537,704.0
56.655787805,645.0
56.672499074,694.0
56.689210343,723.0
56.705921612,716.0
56.722632881,681.0
56.739344150,735.0
56.756055419,724.0
56.772766688,739.0
56.789477957,702.0
56.806189226,710.0
56.822900495,694.0
56.839611764,699.0
56.856323033,660.0
56.873034302,715.0
56.889745571,672.0
56.906456840,659.0
56.923168109,708.0
56.939879378,690.0
56.956590647,688.0
56.973301916,745.0
56.990013185,663.0
57.006724454,651.0
57.023435723,702.0
57.040146992,660.0
57.056858261,720.0
57.073569530,693.0
57.090280799,713.0
57.106992068,705.0
57.123703337,695.0
57.140414606,685.0
57.157125875,679.0
57.173837144,693.0
57.190548413,735.0
57.207259682,674.0
57.223970951,682.0
57.240682220,710.0
57.257393489,701.0
57.274104758,713.0
57.290816027,691.0
57.307527296,666.0
57.324238565,641.0
57.340949834,667.0
57.357661103,679.0
57.374372372,720.0
57.391083641,697.0
57.407794910,673.0
57.424506178,682.0
57.441217447,740.0
57.457928716,728.0
57.474639985,669.0
57.491351254,676.0
57.508062523,700.0
57.524773792,670.0
57.541485061,667.0
57.558196330,693.0
57.574907599,668.0
57.591618868,680.0
57.608330137,639.0
57.625041406,690.0
57.641752675,697.0
57.658463944,662.0
57.675175213,708.0
57.691886482,723.0
57.708597751,673.0
57.725309020,653.0
57.742020289,713.0
57.758731558,727.0
57.775442827,690.0
57.792154096,701.0
57.808865365,691.0
57.825576634,658.0
57.842287903,696.0
57.858999172,702.0
57.875710441,691.0
57.892421710,715.0
57.909132979,792.0
57.925844248,716.0
57.942555517,752.0
57.959266786,700.0
57.975978055,736.0
57.992689324,751.0
58.009400593,752.0
58.026111862,744.0
58.042823131,723.0
58.059534400,725.0
58.076245669,729.0
58.092956938,738.0
58.109668207,724.0
58.126379476,702.0
58.143090745,770.0
58.159802014,737.0
58.176513283,685.0
58.193224551,691.0
58.209935820,689.0
58.226647089,740.0
58.243358358,737.0
58.260069627,725.0
58.276780896,727.0
58.293492165,777.0
58.310203434,758.0
58.326914703,727.0
58.343625972,756.0
58.360337241,688.0
58.377048510,723.0
58.393759779,729.0
58.410471048,737.0
58.427182317,754.0
58.443893586,686.0
58.460604855,740.0
58.477316124,755.0
58.494027393,730.0
58.510738662,736.0
58.527449931,701.0
58.544161200,716.0
58.560872469,746.0
58.577583738,709.0
58.594295007,713.0
58.611006276,695.0
58.627717545,659.0
58.644428814,748.0
58.661140083,710.0
58.677851352,726.0
58.694562621,694.0
58.711273890,721.0
58.727985159,651.0
58.744696428,694.0
58.761407697,620.0
58.778118966,679.0
58.794830235,709.0
58.811541504,663.0
58.828252773,661.0
58.844964042,699.0
58.861675311,694.0
58.878386580,731.0
58.895097849,722.0
58.911809118,683.0
58.928520387,715.0
58.945231655,694.0
58.961942924,717.0
58.978654193,687.0
58.995365462,709.0
59.012076731,672.0
59.028788000,687.0
59.045499269,688.0
59.062210538,710.0
59.078921807,746.0
59.095633076,666.0
59.112344345,701.0
59.129055614,724.0
59.145766883,727.0
59.162478152,705.0
59.179189421,684.0
59.195900690,691.0
59.212611959,707.0
59.229323228,660.0
59.246034497,693.0
59.262745766,694.0
59.279457035,729.0
59.296168304,696.0
59.312879573,651.0
59.329590842,713.0
59.346302111,705.0
59.363013380,688.0
59.379724649,672.0
59.396435918,676.0
59.413147187,712.0
59.429858456,700.0
59.446569725,714.0
59.463280994,693.0
59.479992263,721.0
59.496703532,699.0
59.513414801,696.0
59.530126070,696.0
59.546837339,662.0
59.563548608,713.0
59.580259877,659.0
59.596971146,741.0
59.613682415,672.0
59.630393684,680.0
59.647104953,649.0
59.663816222,687.0
59.680527491,668.0
59.697238760,700.0
59.713950028,666.0
59.730661297,683.0
59.747372566,707.0
59.764083835,717.0
59.780795104,705.0
59.797506373,686.0
59.814217642,699.0
59.830928911,710.0
59.847640180,674.0
59.864351449,720.0
59.881062718,624.0
59.897773987,681.0
59.914485256,660.0
59.931196525,698.0
59.947907794,684.0
59.964619063,732.0
59.981330332,676.0
59.998041601,708.0
60.014752870,710.0
60.031464139,685.0
60.048175408,714.0
60.064886677,705.0
60.081597946,653.0
60.098309215,696.0
60.115020484,689.0
60.131731753,691.0
60.148443022,672.0
60.165154291,684.0
60.181865560,639.0
60.198576829,686.0
60.215288098,666.0
60.231999367,709.0
60.248710636,695.0
60.265421905,685.0
60.282133174,693.0
60.298844443,703.0
60.315555712,663.0
60.332266981,675.0
60.348978250,628.0
60.365689519,690.0
60.382400788,710.0
60.399112057,739.0
60.415823326,682.0
60.432534595,661.0
60.449245864,716.0
60.465957132,737.0
60.482668401,628.0
60.499379670,707.0
60.516090939,727.0
60.532802208,732.0
60.549513477,712.0
60.566224746,677.0
60.582936015,640.0
60.599647284,651.0
60.616358553,718.0
60.633069822,684.0
60.649781091,682.0
60.666492360,743.0
60.683203629,711.0
60.699914898,711.0
60.716626167,709.0
60.733337436,693.0
60.750048705,726.0
60.766759974,718.0
60.783471243,714.0
60.800182512,658.0
60.816893781,695.0
60.833605050,698.0
60.850316319,742.0
60.867027588,695.0
60.883738857,693.0
60.900450126,705.0
60.917161395,684.0
60.933872664,693.0
60.950583933,745.0
60.967295202,712.0
60.984006471,710.0
61.000717740,686.0
61.017429009,743.0
61.034140278,696.0
61.050851547,724.0
61.067562816,806.0
61.084274085,710.0
61.100985354,686.0
61.117696623,717.0
61.134407892,743.0
61.151119161,717.0
61.167830430,682.0
61.184541699,702.0
61.201252968,777.0
61.217964237,728.0
61.234675505,708.0
61.251386774,727.0
61.268098043,700.0
61.284809312,687.0
61.301520581,753.0
61.318231850,727.0
61.334943119,763.0
61.351654388,707.0
61.368365657,751.0
61.385076926,770.0
61.401788195,727.0
61.418499464,701.0
61.435210733,779.0
61.451922002,739.0
61.468633271,730.0
61.485344540,713.0
61.502055809,790.0
61.518767078,815.0
61.535478347,751.0
61.552189616,734.0
61.568900885,770.0
61.585612154,766.0
61.602323423,786.0
61.619034692,736.0
61.635745961,771.0
61.652457230,791.0
61.669168499,757.0
61.685879768,790.0
61.702591037,794.0
61.719302306,776.0
61.736013575,801.0
61.752724844,837.0
61.769436113,787.0
61.786147382,767.0
61.802858651,749.0
61.819569920,734.0
61.836281189,741.0
61.852992458,813.0
61.869703727,731.0
61.886414996,750.0
61.903126265,772.0
61.919837534,715.0
61.936548803,722.0
61.953260072,738.0
61.969971341,691.0
61.986682610,752.0
62.003393878,737.0
62.020105147,701.0
62.036816416,756.0
62.053527685,729.0
62.070238954,684.0
62.086950223,694.0
62.103661492,683.0
62.120372761,652.0
62.137084030,738.0
62.153795299,726.0
62.170506568,728.0
62.187217837,694.0
62.203929106,758.0
62.220640375,727.0
62.237351644,668.0
62.254062913,718.0
62.270774182,723.0
62.287485451,707.0
62.304196720,689.0
62.320907989,693.0
62.337619258,684.0
62.354330527,712.0
62.371041796,732.0
62.387753065,700.0
62.404464334,660.0
62.421175603,729.0
62.437886872,666.0
62.454598141,693.0
62.471309410,700.0
62.488020679,701.0
62.504731948,666.0
62.521443217,680.0
62.538154486,684.0
62.554865755,713.0
62.571577024,710.0
62.588288293,655.0
62.604999562,740.0
62.621710831,700.0
62.638422100,724.0
62.655133369,734.0
62.671844638,714.0
62.688555907,713.0
62.705267176,653.0
62.721978445,730.0
62.738689714,696.0
62.755400982,668.0
62.772112251,727.0
62.788823520,726.0
62.805534789,700.0
62.822246058,725.0
62.838957327,735.0
62.855668596,749.0
62.872379865,641.0
62.889091134,730.0
62.905802403,670.0
62.922513672,656.0
62.939224941,698.0
62.955936210,698.0
62.972647479,694.0
62.989358748,658.0
63.006070017,616.0
63.022781286,708.0
63.039492555,647.0
63.056203824,720.0
63.072915093,663.0
63.089626362,697.0
63.106337631,696.0
63.123048900,688.0
63.139760169,683.0
63.156471438,667.0
63.173182707,676.0
63.189893976,663.0
63.206605245,659.0
63.223316514,687.0
63.240027783,734.0
63.256739052,673.0
63.273450321,705.0
63.290161590,669.0
63.306872859,698.0
63.323584128,666.0
63.340295397,637.0
63.357006666,718.0
63.373717935,642.0
63.390429204,654.0
63.407140473,696.0
63.423851742,648.0
63.440563011,703.0
63.457274280,662.0
63.473985549,731.0
63.490696818,641.0
63.507408087,643.0
63.524119355,715.0
63.540830624,691.0
63.557541893,748.0
63.574253162,727.0
63.590964431,690.0
63.607675700,713.0
63.624386969,691.0
63.641098238,708.0
63.657809507,729.0
63.674520776,723.0
63.691232045,712.0
63.707943314,711.0
63.724654583,675.0
63.741365852,708.0
63.758077121,708.0
63.774788390,712.0
63.791499659,738.0
63.808210928,637.0
63.824922197,713.0
63.841633466,713.0
63.858344735,689.0
63.875056004,667.0
63.891767273,686.0
63.908478542,710.0
63.925189811,665.0
63.941901080,673.0
63.958612349,673.0
63.975323618,681.0
63.992034887,657.0
64.008746156,702.0
64.025457425,721.0
64.042168694,685.0
64.058879963,686.0
64.075591232,715.0
64.092302501,671.0
64.109013770,690.0
64.125725039,705.0
64.142436308,731.0
64.159147577,651.0
64.175858846,690.0
64.192570115,679.0
64.209281384,642.0
64.225992653,697.0
64.242703922,714.0
64.259415191,704.0
64.276126459,652.0
64.292837728,694.0
64.309548997,674.0
64.326260266,709.0
64.342971535,696.0
64.359682804,674.0
64.376394073,694.0
64.393105342,667.0
64.409816611,714.0
64.426527880,732.0
64.443239149,679.0
64.459950418,698.0
64.476661687,677.0
64.493372956,688.0
64.510084225,668.0
64.526795494,699.0
64.543506763,667.0
64.560218032,711.0
64.576929301,704.0
64.593640570,695.0
64.610351839,685.0
64.627063108,699.0
64.643774377,699.0
64.660485646,714.0
64.677196915,675.0
64.693908184,760.0
64.710619453,676.0
64.727330722,713.0
64.744041991,725.0
64.760753260,662.0
64.777464529,653.0
64.794175798,667.0
64.810887067,658.0
64.827598336,638.0
64.844309605,713.0
64.861020874,676.0
64.877732143,721.0
64.894443412,723.0
64.911154681,715.0
64.927865950,675.0
64.944577219,721.0
64.961288488,622.0
64.977999757,745.0
64.994711026,704.0
65.011422295,659.0
65.028133564,681.0
65.044844832,647.0
65.061556101,690.0
65.078267370,661.0
65.094978639,684.0
65.111689908,709.0
65.128401177,683.0
65.145112446,680.0
65.161823715,696.0
65.178534984,690.0
65.195246253,696.0
65.211957522,667.0
65.228668791,729.0
65.245380060,690.0
65.262091329,646.0
65.278802598,694.0
65.295513867,751.0
65.312225136,724.0
65.328936405,711.0
65.345647674,694.0
65.362358943,694.0
65.379070212,700.0
65.395781481,669.0
65.412492750,711.0
65.429204019,714.0
65.445915288,713.0
65.462626557,718.0
65.479337826,690.0
65.496049095,691.0
65.512760364,735.0
65.529471633,711.0
65.546182902,743.0
65.562894171,711.0
65.579605440,725.0
65.596316709,714.0
65.613027978,696.0
65.629739247,665.0
65.646450516,716.0
65.663161785,723.0
65.679873054,710.0
65.696584323,701.0
65.713295592,701.0
65.730006861,726.0
65.746718130,689.0
65.763429399,731.0
65.780140668,742.0
65.796851937,743.0
65.813563205,713.0
65.830274474,700.0
65.846985743,736.0
65.863697012,804.0
65.880408281,748.0
65.897119550,745.0
65.913830819,715.0
65.930542088,751.0
65.947253357,684.0
65.963964626,720.0
65.980675895,737.0
65.997387164,758.0
66.014098433,712.0
66.030809702,767.0
66.047520971,691.0
66.064232240,745.0
66.080943509,690.0
66.097654778,763.0
66.114366047,745.0
66.131077316,720.0
66.147788585,732.0
66.164499854,727.0
66.181211123,795.0
66.197922392,708.0
66.214633661,736.0
66.231344930,718.0
66.248056199,795.0
66.264767468,655.0
66.281478737,723.0
66.298190006,736.0
66.314901275,709.0
66.331612544,745.0
66.348323813,752.0
66.365035082,738.0
66.381746351,734.0
66.398457620,714.0
66.415168889,777.0
66.431880158,756.0
66.448591427,776.0
66.465302696,767.0
66.482013965,741.0
66.498725234,688.0
66.515436503,693.0
66.532147772,726.0
66.548859041,773.0
66.565570309,725.0
66.582281578,712.0
66.598992847,705.0
66.615704116,702.0
66.632415385,759.0
66.649126654,687.0
66.665837923,685.0
66.682549192,779.0
66.699260461,748.0
66.715971730,739.0
66.732682999,742.0
66.749394268,720.0
66.766105537,723.0
66.782816806,724.0
66.799528075,689.0
66.816239344,722.0
66.832950613,686.0
66.849661882,687.0
66.866373151,680.0
66.883084420,717.0
66.899795689,683.0
66.916506958,731.0
66.933218227,737.0
66.949929496,742.0
66.966640765,710.0
66.983352034,660.0
67.000063303,677.0
67.016774572,693.0
67.033485841,697.0
67.050197110,693.0
67.066908379,785.0
67.083619648,688.0
67.100330917,727.0
67.117042186,687.0
67.133753455,697.0
67.150464724,665.0
67.167175993,680.0
67.183887262,714.0
67.200598531,701.0
67.217309800,657.0
67.234021069,654.0
67.250732338,663.0
67.267443607,701.0
67.284154876,753.0
67.300866145,672.0
67.317577414,723.0
67.334288682,667.0
67.350999951,685.0
67.367711220,695.0
67.384422489,708.0
67.401133758,691.0
67.417845027,649.0
67.434556296,698.0
67.451267565,674.0
67.467978834,687.0
67.484690103,673.0
67.501401372,728.0
67.518112641,716.0
67.534823910,647.0
67.551535179,696.0
67.568246448,705.0
67.584957717,690.0
67.601668986,700.0
67.618380255,698.0
67.635091524,720.0
67.651802793,709.0
67.668514062,682.0
67.685225331,649.0
67.701936600,702.0
67.718647869,734.0
67.735359138,732.0
67.752070407,739.0
67.768781676,727.0
67.785492945,718.0
67.802204214,675.0
67.818915483,723.0
67.835626752,729.0
67.852338021,690.0
67.869049290,744.0
67.885760559,690.0
67.902471828,711.0
67.919183097,684.0
67.935894366,712.0
67.952605635,704.0
67.969316904,732.0
67.986028173,725.0
68.002739442,726.0
68.019450711,723.0
68.036161980,764.0
68.052873249,765.0
68.069584518,703.0
68.086295786,709.0
68.103007055,710.0
68.119718324,685.0
68.136429593,670.0
68.153140862,730.0
68.169852131,774.0
68.186563400,702.0
68.203274669,697.0
68.219985938,751.0
68.236697207,720.0
68.253408476,690.0
68.270119745,708.0
68.286831014,694.0
68.303542283,754.0
68.320253552,681.0
68.336964821,727.0
68.353676090,746.0
68.370387359,695.0
68.387098628,688.0
68.403809897,658.0
68.420521166,675.0
68.437232435,673.0
68.453943704,651.0
68.470654973,673.0
68.487366242,660.0
68.504077511,714.0
68.520788780,673.0
68.537500049,697.0
68.554211318,665.0
68.570922587,649.0
68.587633856,648.0
68.604345125,660.0
68.621056394,722.0
68.637767663,645.0
68.654478932,679.0
68.671190201,679.0
68.687901470,669.0
68.704612739,646.0
68.721324008,646.0
68.738035277,704.0
68.754746546,657.0
68.771457815,635.0
68.788169084,724.0
68.804880353,703.0
68.821591622,641.0
68.838302891,631.0
68.855014159,660.0
68.871725428,690.0
68.888436697,599.0
68.905147966,644.0
68.921859235,648.0
68.938570504,683.0
68.955281773,681.0
68.971993042,649.0
68.988704311,675.0
69.005415580,648.0
69.022126849,611.0
69.038838118,629.0
69.055549387,616.0
69.072260656,604.0
69.088971925,607.0
69.105683194,683.0
69.122394463,655.0
69.139105732,619.0
69.155817001,642.0
69.172528270,671.0
69.189239539,658.0
69.205950808,669.0
69.222662077,643.0
69.239373346,653.0
69.256084615,671.0
69.272795884,647.0
69.289507153,647.0
69.306218422,680.0
69.322929691,608.0
69.339640960,616.0
69.356352229,626.0
69.373063498,645.0
69.389774767,700.0
69.406486036,660.0
69.423197305,656.0
69.439908574,677.0
69.456619843,665.0
69.473331112,648.0
69.490042381,675.0
69.506753650,638.0
69.523464919,653.0
69.540176188,649.0
69.556887457,642.0
69.573598726,651.0
69.590309995,670.0
69.607021264,647.0
69.623732532,614.0
69.640443801,619.0
69.657155070,676.0
69.673866339,632.0
69.690577608,641.0
69.707288877,583.0
69.724000146,684.0
69.740711415,652.0
69.757422684,624.0
69.774133953,645.0
69.790845222,691.0
69.807556491,598.0
69.824267760,604.0
69.840979029,654.0
69.857690298,614.0
69.874401567,646.0
69.891112836,633.0
69.907824105,644.0
69.924535374,661.0
69.941246643,657.0
69.957957912,620.0
69.974669181,628.0
69.991380450,602.0
